49
490
523
457
491
514
462
509
525
472
525
523
478
549
545
497
559
551
509
561
523
479
544
499
476
529
482
474
522
477
487
536
471
479
547
478
483
526
466
502
533
465
505
543
472
512
543
475
529
528
466
518
524
473
521
522
487
537
510
475
537
500
468
530
489
472
534
491
493
556
502
495
552
482
463
476
430
493
746
938
885
694
521
516
520
449
487
507
442
474
500
431
489
495
431
485
484
438
494
482
452
508
509
478
533
497
477
554
523
518
580
524
522
578
518
508
551
479
487
526
461
488
516
451
498
527
460
486
511
453
506
513
450
506
520
457
509
506
460
521
503
460
530
501
467
516
481
467
541
497
481
550
494
479
536
471
467
522
458
472
532
461
475
526
459
495
542
477
493
504
399
443
520
654
956
902
622
552
519
458
519
502
454
517
490
464
523
483
450
508
468
460
520
471
475
551
488
483
542
487
491
551
482
504
552
492
526
574
513
526
550
484
517
523
453
498
509
461
499
499
464
510
500
468
518
494
466
517
490
484
539
486
481
546
484
478
544
480
480
541
485
493
543
482
495
550
484
504
546
459
483
530
460
494
534
463
510
524
463
503
511
462
483
444
420
528
724
945
901
653
522
544
495
463
518
472
469
530
475
471
526
474
484
535
463
483
531
468
483
529
477
507
547
486
523
560
507
550
567
514
562
572
502
553
542
483
532
503
469
520
489
459
515
488
476
530
478
476
539
489
474
539
490
490
549
486
504
552
484
501
541
474
490
533
482
510
535
468
501
524
471
504
508
466
512
500
469
532
508
480
525
504
472
533
504
446
465
436
496
794
974
836
667
521
490
530
465
464
512
449
459
509
450
462
498
459
480
497
450
480
500
454
493
505
458
505
512
478
527
518
496
555
534
507
563
525
505
539
493
489
527
471
475
525
470
473
524
465
474
518
460
477
526
465
488
521
469
492
516
467
491
512
473
515
520
468
517
507
481
526
517
490
531
513
481
531
507
495
539
502
493
528
493
494
537
480
489
546
493
473
458
426
482
698
949
938
733
539
526
520
476
496
500
455
496
508
454
492
498
462
497
487
462
504
493
471
521
488
467
519
490
473
533
497
490
545
507
523
576
515
526
559
493
497
539
486
509
546
500
537
588
561
608
665
651
694
711
676
722
728
704
755
760
720
751
741
705
740
726
697
736
718
698
734
694
675
716
650
644
679
612
615
657
607
622
651
612
650
681
632
655
684
628
594
621
630
777
1002
1003
997
814
681
728
686
670
710
667
658
640
550
578
576
508
556
593
534
586
646
633
692
745
730
760
781
738
786
834
865
950
984
956
995
990
951
939
879
856
945
791
731
787
764
792
877
882
907
977
956
956
993
968
979
998
992
997
1000
998
1000
1000
1000
1001
999
1001
1001
1002
1002
1001
1002
1002
1002
1003
1003
1003
1004
1004
1005
1004
1005
1004
1003
1000
965
942
1003
1006
1006
1006
1004
992
826
783
827
746
719
751
687
665
690
616
616
632
557
568
592
534
552
568
529
568
572
535
563
547
507
540
536
514
554
532
488
514
475
440
488
440
409
457
412
397
437
384
384
419
367
364
409
353
328
250
216
235
291
231
270
341
313
358
480
436
433
448
358
286
322
349
388
400
419
407
374
374
418
397
388
433
401
394
432
375
356
369
291
327
444
596
808
725
447
365
376
315
328
348
290
305
339
296
315
344
307
319
330
293
314
327
303
272
124
11
0
0
0
0
0
0
0
0
0
0
0
0
0
0
0
0
0
0
0
0
0
0
0
0
0
0
0
0
0
0
0
0
0
0
0
0
0
0
0
0
0
0
0
0
0
0
0
0
0
0
0
0
0
0
0
0
0
0
0
0
0
0
0
0
0
0
0
0
0
0
0
0
0
0
0
0
0
0
0
0
0
0
0
0
0
0
0
0
0
0
0
0
0
0
0
0
0
0
0
0
0
0
0
0
0
0
0
0
0
0
0
0
0
0
0
0
0
0
0
0
0
0
0
0
0
0
0
0
0
0
0
0
0
4
99
168
187
275
343
511
680
741
860
925
978
1002
1004
1005
1006
1006
1007
1007
1007
1007
1008
1007
1007
1007
1008
1007
1007
1007
1007
1007
1007
1007
1007
1007
1007
1007
1008
1007
1007
1007
1007
1007
1007
1008
1007
1008
1007
1007
1007
1007
1007
1007
1007
1007
1007
1007
1007
1007
1007
1007
1007
1007
1007
1007
1007
1007
1007
1007
1007
1007
1007
1007
1007
1007
1007
1007
1007
1007
1007
1008
1007
1007
1007
1007
1007
1007
1007
1007
1007
1007
1007
1007
1007
1008
1007
1007
1007
1007
1007
1007
1007
1007
1008
1007
1007
1008
1007
1007
1007
1007
1007
1007
1007
1007
1007
1007
1007
1007
1007
1007
1007
1007
1008
1007
1007
1007
1008
1008
1007
1007
1007
1007
1007
1007
1007
1007
1007
1007
1007
1007
1007
1007
1007
1007
1007
1007
1007
1007
1007
1008
1007
1007
1007
1007
1007
1007
1007
1007
1006
1005
1000
763
639
588
519
460
370
306
248
148
108
56
0
0
0
0
0
0
0
0
0
0
0
0
0
0
0
0
0
0
0
0
0
0
0
0
0
0
0
0
0
0
0
0
0
0
0
0
0
0
0
0
0
0
0
0
0
0
0
0
0
0
0
0
0
0
0
0
0
0
0
0
0
0
0
0
0
0
0
0
0
0
0
0
0
0
0
0
0
0
0
0
0
0
0
0
0
0
0
0
0
0
0
0
0
0
0
0
0
0
0
0
0
0
0
0
0
0
0
0
0
0
0
0
0
0
0
0
0
0
0
0
0
0
0
0
0
0
0
0
0
0
0
0
0
0
0
0
0
0
0
0
0
0
0
0
0
0
0
0
0
0
0
0
0
0
0
0
0
0
0
0
0
0
0
0
0
0
0
0
0
0
0
0
0
0
0
0
58
231
286
235
257
320
354
456
510
485
508
552
505
521
558
508
519
567
599
648
665
616
652
684
601
531
489
409
369
409
418
635
911
793
473
336
223
133
90
63
44
52
50
89
151
126
129
215
215
250
346
353
383
462
434
408
388
296
303
365
341
361
410
388
414
452
432
464
487
461
492
496
459
491
499
485
522
526
513
540
509
494
519
487
477
473
391
348
370
347
341
379
349
350
395
375
363
352
277
248
263
215
198
222
174
189
213
167
191
215
188
228
261
236
282
305
267
268
234
194
232
194
144
230
303
504
604
132
0
0
0
0
0
0
0
0
0
0
0
0
0
0
0
0
0
0
0
0
0
0
0
0
0
0
0
0
0
0
0
0
0
0
0
0
0
0
3
52
109
130
60
70
80
0
0
0
0
0
0
0
0
0
0
0
0
0
0
0
0
0
0
0
0
0
0
0
0
0
0
0
17
85
130
90
96
162
167
145
215
218
202
273
272
260
336
330
329
388
374
374
428
414
428
479
446
474
527
490
513
569
533
568
618
569
600
651
565
580
648
702
969
1004
1000
871
692
664
707
665
631
662
588
552
590
539
521
572
525
521
568
513
527
580
528
542
593
552
576
626
578
608
646
594
628
655
625
661
669
621
659
665
613
649
654
627
667
648
630
681
664
644
696
672
649
707
674
664
715
673
670
723
663
659
715
673
676
711
665
673
719
667
653
684
616
625
638
579
580
564
488
478
463
415
457
453
418
478
465
440
495
437
400
488
544
739
999
862
622
587
522
496
550
500
501
553
502
515
567
530
540
580
535
550
586
536
571
597
548
589
606
561
607
627
593
642
650
614
665
658
627
666
641
606
648
608
582
635
598
581
626
595
595
632
583
588
641
591
599
631
584
604
632
575
595
624
566
592
625
572
601
612
560
592
607
576
629
614
577
629
607
560
615
597
554
610
583
551
614
577
563
616
580
568
616
561
541
524
493
563
783
1000
982
753
548
572
569
499
542
544
500
541
536
500
551
534
501
555
531
509
555
530
512
564
525
505
566
527
517
565
529
536
588
547
561
601
543
549
579
510
518
548
484
505
526
464
498
519
472
507
509
468
515
510
464
496
494
471
513
483
459
512
483
467
523
487
471
524
473
470
521
488
491
525
481
468
512
458
464
501
453
483
508
453
488
509
448
493
513
460
497
492
399
436
466
525
852
997
816
607
525
482
515
477
456
514
478
459
514
468
463
516
467
465
516
461
469
521
458
479
517
463
483
525
466
493
529
483
521
545
501
537
541
488
520
512
466
513
494
452
504
483
459
505
480
469
515
474
463
518
471
470
518
466
461
519
468
470
520
467
482
525
463
482
520
472
494
528
467
504
529
465
500
514
469
503
509
463
503
499
463
516
495
469
522
497
475
519
426
429
524
636
914
990
718
534
563
483
475
523
469
483
521
461
480
520
457
490
517
451
497
513
459
505
522
475
508
518
480
530
524
500
550
537
519
577
547
518
566
517
496
541
497
485
526
479
482
538
481
490
541
485
498
535
485
499
530
477
499
533
476
514
541
481
518
543
489
526
528
490
548
532
492
543
518
478
529
491
464
519
481
461
522
485
472
521
481
483
533
476
463
467
440
498
722
953
919
696
516
518
531
456
475
502
455
490
517
460
508
521
467
514
514
476
526
520
484
537
516
489
548
518
515
570
535
535
592
547
535
597
553
551
594
528
530
567
507
527
573
511
537
570
507
543
574
517
555
580
528
570
581
534
578
581
543
585
585
553
595
570
561
628
590
573
624
587
575
624
575
561
616
571
570
630
587
584
637
605
624
656
586
559
591
576
726
1002
1003
996
759
604
658
620
583
628
594
581
623
570
572
622
559
564
606
542
548
590
527
538
592
535
556
595
540
569
590
539
577
595
543
585
595
539
563
550
513
554
528
495
542
516
492
535
499
480
526
493
480
537
484
482
538
487
499
535
477
490
538
475
493
538
479
502
526
476
502
522
460
497
506
452
504
506
447
507
498
453
508
488
460
509
478
388
454
482
616
976
961
694
573
486
456
506
443
444
490
422
429
488
434
452
508
438
469
502
434
467
498
444
477
500
441
482
499
464
512
519
481
528
517
483
538
506
470
532
486
452
504
463
447
510
468
460
508
454
462
527
459
465
524
458
477
523
455
477
518
450
473
516
471
512
525
467
513
517
458
500
492
453
505
494
444
508
484
452
512
477
459
531
475
393
458
462
554
841
960
743
603
517
490
522
459
473
513
450
478
517
452
473
517
450
483
504
440
475
488
452
501
496
455
513
504
469
535
515
480
546
518
485
551
500
482
538
488
476
540
481
476
536
477
467
536
474
488
544
477
494
539
474
502
536
472
514
544
479
523
537
494
545
536
489
551
541
492
540
520
476
544
522
481
542
508
488
549
505
503
556
504
468
483
461
545
792
989
906
712
543
530
540
475
499
527
463
507
526
458
502
516
460
509
520
468
517
510
471
526
506
481
536
513
487
561
522
506
571
525
517
570
515
505
556
496
495
547
477
483
533
472
490
531
471
490
525
466
508
530
475
513
530
467
519
531
478
524
524
492
557
536
480
542
516
481
534
495
469
536
488
470
521
470
461
525
467
475
535
464
481
484
404
447
590
806
998
879
561
524
542
466
497
509
443
486
506
449
492
492
447
498
487
447
496
484
455
502
482
471
527
486
475
535
488
496
557
508
509
565
501
497
549
484
489
532
468
485
519
455
482
514
461
497
512
462
504
512
459
508
505
466
529
512
473
524
506
467
526
509
495
537
494
483
535
481
471
515
465
469
530
473
479
529
471
476
529
469
489
525
435
426
493
497
758
1001
849
625
530
476
514
484
459
508
467
452
512
462
449
509
469
471
523
465
468
525
472
481
535
468
493
541
475
505
553
496
525
558
501
529
547
487
517
519
470
500
500
454
511
496
454
521
503
460
521
491
467
526
484
464
527
483
476
529
468
473
546
497
506
542
488
497
532
477
491
517
459
482
514
459
498
520
468
502
516
474
516
514
421
446
487
526
780
982
797
617
536
487
522
480
458
517
472
462
522
471
471
522
469
479
530
468
483
526
465
492
536
471
497
534
485
521
542
497
545
563
503
534
539
491
530
517
478
527
510
481
524
494
466
529
493
473
522
488
493
551
494
482
537
493
492
544
482
489
543
485
505
543
489
520
544
492
510
527
479
512
522
471
508
522
481
522
520
477
524
521
482
542
524
437
483
485
572
876
981
764
608
527
495
525
465
465
516
461
472
517
452
473
521
458
476
510
446
495
516
456
492
518
471
515
527
480
532
528
491
546
542
509
555
529
494
545
501
472
530
495
476
525
486
477
534
478
476
535
479
481
532
480
493
529
476
492
528
479
505
541
487
517
533
483
532
543
495
540
542
481
525
513
476
529
509
473
536
510
486
537
505
491
541
493
480
548
467
434
521
558
809
1001
829
591
548
476
509
518
448
482
501
454
498
496
466
514
498
474
522
496
466
527
498
479
544
503
490
551
516
514
578
536
534
589
535
535
581
519
518
558
492
507
549
480
512
547
477
508
532
483
526
540
483
531
532
495
541
529
497
555
534
513
571
537
503
565
534
512
562
522
521
593
541
526
584
526
529
578
517
523
571
507
522
566
510
535
561
510
536
557
506
545
515
442
519
614
840
1002
912
616
574
526
508
560
510
501
542
489
499
557
498
498
551
493
513
561
489
512
552
497
518
549
497
535
555
505
558
573
520
564
572
524
565
545
498
553
524
477
532
505
474
531
497
477
532
489
475
536
479
479
534
483
485
534
479
487
534
479
503
536
472
497
530
467
504
529
478
519
529
470
528
529
470
509
505
458
509
489
451
507
486
470
520
482
460
524
477
454
495
413
431
538
682
929
884
580
505
528
442
455
491
437
457
482
429
460
485
431
463
482
434
467
485
440
476
477
441
490
488
464
520
497
478
526
496
485
547
520
496
538
490
482
527
463
453
516
458
465
512
449
467
513
453
472
516
451
470
504
459
494
507
454
490
504
455
497
494
458
516
503
465
513
496
482
533
493
473
523
486
460
506
469
463
524
478
472
514
461
477
526
464
481
530
472
451
462
435
547
804
956
816
615
504
507
487
441
483
489
436
491
482
443
487
476
454
509
472
449
508
470
468
525
480
477
529
489
490
547
496
504
558
510
522
555
496
500
534
466
482
504
445
484
502
453
482
491
450
499
507
460
506
502
468
515
497
470
523
502
471
525
490
477
531
491
480
534
484
469
531
475
483
537
485
509
543
493
509
542
484
503
527
467
494
524
464
500
523
472
513
516
466
516
508
440
449
472
484
747
997
898
679
530
482
523
475
460
511
458
450
519
463
467
522
461
473
521
459
472
516
461
495
523
462
494
522
476
512
535
487
541
556
512
549
548
497
539
529
481
519
499
464
517
493
476
529
483
462
530
486
476
525
482
489
540
486
490
540
481
499
537
480
506
542
482
509
541
481
512
541
480
519
526
485
523
524
489
535
523
475
515
491
466
523
497
472
535
496
480
544
493
483
547
501
441
484
448
552
908
993
819
613
498
500
521
449
470
510
457
484
506
446
477
492
450
484
493
449
493
495
460
504
492
471
523
504
492
555
519
498
563
526
520
568
514
513
551
487
489
525
462
483
530
468
486
522
465
488
526
466
487
513
457
503
517
457
500
514
470
514
503
466
520
498
470
530
505
472
528
504
479
533
503
507
554
503
497
552
496
487
539
474
489
532
472
499
538
474
507
551
481
512
542
457
447
492
486
675
961
894
680
573
499
520
499
463
509
478
454
515
483
453
516
469
454
516
476
474
522
471
482
542
478
488
542
488
506
554
492
521
563
499
530
560
508
539
542
477
513
525
459
514
512
461
516
501
470
527
501
465
521
495
472
537
499
479
538
497
488
546
494
497
549
490
494
541
488
500
543
492
522
556
489
519
545
480
512
530
464
509
524
470
511
519
481
527
512
486
535
514
464
479
461
473
668
911
937
755
569
520
543
477
475
527
469
471
521
463
474
520
463
478
516
456
482
527
471
502
525
473
507
532
480
528
531
490
537
534
504
559
534
496
553
514
474
524
485
461
518
478
460
512
467
471
525
464
469
523
468
480
528
464
489
542
471
501
536
474
505
524
464
504
523
468
511
511
473
522
521
482
520
505
469
523
492
462
507
477
462
519
475
471
540
489
479
532
485
481
528
448
414
489
497
741
1000
854
618
551
487
514
510
456
503
494
464
507
484
452
512
492
463
517
479
463
530
483
468
531
484
482
533
497
500
552
498
520
563
502
519
564
501
519
544
479
512
524
457
500
510
459
505
514
459
506
504
463
513
500
464
522
498
476
531
490
470
533
492
476
533
490
484
532
479
489
540
482
503
537
492
505
540
471
501
531
459
487
517
467
512
523
461
508
516
468
511
504
435
448
455
498
790
998
881
665
527
477
520
476
461
517
470
461
524
467
464
518
465
466
515
465
473
521
459
484
530
465
497
533
479
513
541
500
545
552
507
569
568
506
540
527
474
513
502
459
517
498
470
523
489
475
526
486
475
533
487
480
537
476
485
535
478
495
533
470
491
532
471
495
533
479
523
549
476
524
531
475
517
519
464
508
506
470
512
499
474
535
499
475
528
500
481
494
422
447
565
712
953
901
600
525
565
472
469
525
457
472
519
450
478
508
451
481
511
451
485
504
457
504
505
465
517
510
463
521
524
499
549
525
504
556
524
512
561
505
480
531
484
486
525
478
472
525
472
483
526
467
487
536
480
501
533
475
509
546
477
508
531
487
520
528
479
522
521
481
548
547
490
554
534
492
540
514
479
534
493
481
534
485
486
547
502
494
541
490
494
522
425
466
562
681
957
937
628
547
554
466
500
516
460
494
509
459
507
506
452
510
501
454
506
503
479
534
507
484
547
501
476
541
506
506
562
515
524
575
524
528
563
496
508
548
479
486
525
470
495
526
472
509
534
472
511
523
477
526
526
474
523
521
487
534
509
481
526
507
484
530
496
479
533
490
493
551
502
498
557
496
493
541
477
483
528
468
490
530
470
497
526
472
501
528
465
496
460
417
486
631
872
992
762
515
526
502
463
507
486
455
506
476
457
511
459
456
514
459
445
506
473
488
525
463
485
530
473
498
546
488
514
551
489
521
566
502
529
555
482
510
521
470
513
510
466
522
510
471
521
498
474
527
503
487
533
485
484
543
493
480
534
484
477
536
486
499
543
471
489
548
483
502
558
485
513
550
482
499
527
471
498
508
465
517
525
474
523
525
485
530
505
471
515
424
416
504
618
912
997
751
533
543
488
477
516
465
476
517
463
470
516
455
475
519
453
486
526
464
485
510
461
495
515
463
510
523
487
537
524
494
554
541
507
558
535
498
545
500
474
527
482
468
528
480
468
524
474
480
530
479
491
534
467
489
540
460
482
521
456
483
519
470
503
521
465
502
515
469
510
507
470
523
500
475
532
510
475
528
482
466
543
500
470
532
487
476
541
478
480
533
480
466
468
436
482
693
922
924
708
516
518
522
454
485
506
444
487
502
453
489
489
453
504
493
465
514
492
466
526
489
471
529
490
472
545
506
505
565
524
523
576
526
528
565
492
497
536
463
481
521
462
488
516
453
487
510
462
511
510
458
499
509
467
516
507
465
520
498
469
518
494
470
529
501
478
540
492
474
542
482
485
539
482
479
528
468
475
532
476
492
535
478
497
533
473
503
498
408
483
579
725
982
861
579
568
550
471
517
506
471
519
494
467
522
489
469
528
485
468
529
482
475
539
490
490
544
496
508
561
505
531
569
506
534
575
506
536
567
499
520
529
472
504
517
470
518
511
466
519
501
466
526
505
484
533
498
476
537
493
487
551
503
495
537
490
493
539
481
503
554
495
521
559
498
518
557
493
513
532
465
508
527
469
516
520
464
521
516
471
534
520
466
467
459
460
649
917
960
769
561
507
535
474
460
527
472
458
517
467
470
515
464
478
517
457
491
531
461
487
514
464
508
527
474
514
532
488
545
543
501
556
543
498
544
524
480
534
494
470
530
490
470
533
492
472
523
477
475
529
474
478
530
474
481
543
476
490
532
469
506
545
479
497
525
482
523
537
472
531
531
479
532
518
469
518
506
461
515
507
479
532
491
478
553
501
478
542
503
482
494
443
469
613
858
994
822
546
517
520
455
507
510
454
489
502
472
506
504
444
485
491
444
513
526
459
508
499
446
528
500
474
546
502
496
569
528
514
580
537
523
591
512
496
545
489
496
558
478
479
558
485
480
532
486
505
535
482
524
542
484
532
541
496
547
539
505
541
544
519
556
531
515
567
524
518
566
525
535
577
510
536
597
526
521
567
509
510
564
516
514
570
508
530
560
505
523
560
471
411
383
331
418
679
856
758
525
381
408
376
334
381
358
331
384
352
331
377
337
303
359
323
315
368
324
326
392
344
357
405
347
366
435
386
394
444
400
430
482
417
430
447
388
427
443
379
412
410
369
422
416
374
425
415
371
416
398
382
443
408
385
428
403
387
441
395
399
456
395
387
413
317
302
341
288
311
349
274
304
328
249
262
247
135
133
117
43
72
100
29
13
83
73
15
54
106
40
35
46
27
27
131
351
507
425
226
106
161
151
96
141
169
115
178
177
130
208
199
159
243
229
178
248
236
205
278
243
230
311
262
265
336
293
294
371
332
346
406
353
357
392
329
349
392
337
360
396
338
375
411
360
406
421
366
415
425
383
436
435
408
468
452
425
484
455
430
495
470
454
509
474
476
524
483
481
537
474
477
524
454
478
528
473
493
531
463
506
539
478
516
540
456
455
506
517
751
999
876
696
599
532
549
524
490
538
509
488
557
512
490
555
514
505
564
520
524
581
526
532
587
532
540
595
551
570
627
575
599
625
560
604
628
558
588
596
528
562
563
502
549
545
499
546
525
503
572
533
506
571
532
511
570
529
523
569
513
511
568
506
498
543
489
496
536
471
503
552
476
500
542
488
505
537
478
508
524
478
531
529
484
540
530
496
554
544
500
535
471
472
592
771
1001
984
705
570
615
546
538
581
509
523
569
507
523
555
489
522
572
516
551
570
522
565
574
532
571
577
537
588
581
562
616
599
580
637
598
590
646
582
558
607
552
544
587
531
532
594
534
544
589
530
556
602
539
551
588
530
568
602
546
582
596
555
592
586
550
600
583
536
595
598
572
604
576
553
602
565
538
591
542
536
590
542
535
589
538
547
595
539
549
594
525
488
534
511
683
1001
989
799
615
543
574
548
503
552
537
496
550
520
499
548
512
498
547
508
508
564
522
511
569
520
530
575
523
545
591
533
551
603
543
569
602
532
552
577
516
537
545
492
525
523
473
534
519
483
541
530
493
550
519
484
536
493
472
540
504
481
533
501
509
549
488
486
535
475
489
547
492
502
543
485
510
532
474
506
521
470
518
521
464
520
521
479
534
522
483
532
496
409
489
513
660
990
915
652
568
509
486
533
474
474
522
465
469
526
472
476
523
464
479
519
459
489
527
470
501
528
471
515
534
484
533
546
497
554
559
512
548
532
491
541
509
479
523
490
470
520
494
478
523
476
482
535
477
487
543
479
495
537
474
497
540
466
504
537
472
512
541
475
527
543
486
546
534
463
515
526
461
507
511
482
534
507
485
540
497
478
545
503
490
513
417
445
564
687
939
937
630
527
564
475
473
525
457
476
523
466
492
510
456
495
512
451
499
507
458
512
503
467
527
510
483
541
526
496
555
540
516
572
535
519
568
507
486
548
489
488
542
482
491
544
479
488
536
476
506
539
476
499
537
483
515
527
474
523
529
479
523
522
481
527
509
467
534
523
483
540
511
482
530
494
470
527
485
476
525
481
477
528
474
477
531
466
490
532
406
446
539
667
966
954
658
545
540
461
488
494
435
480
500
457
501
491
452
507
479
451
502
475
450
512
477
466
535
493
489
549
500
501
562
515
512
569
509
525
564
483
497
532
464
486
525
461
493
513
451
496
517
455
500
507
457
507
501
461
520
501
469
535
500
464
526
502
469
535
492
481
536
488
500
545
489
489
538
473
485
523
458
485
534
471
491
527
470
500
524
467
504
523
466
459
470
443
604
909
989
829
584
490
538
494
456
511
479
455
508
466
460
524
468
460
525
473
458
520
463
468
529
476
496
532
481
513
559
500
547
575
506
549
567
510
548
545
480
520
511
466
520
498
461
519
495
471
535
495
481
540
491
478
530
483
481
541
485
482
547
493
500
551
491
498
541
490
507
546
492
521
530
478
524
532
475
521
522
476
520
504
467
523
503
470
524
513
480
532
500
457
468
457
499
759
998
940
727
531
499
535
462
463
508
445
457
496
436
469
494
448
467
482
439
477
495
441
480
499
450
500
498
464
521
512
485
541
522
502
555
530
500
546
486
462
515
459
452
507
452
463
524
477
478
515
457
486
531
467
477
526
468
486
512
451
498
517
468
500
503
454
501
502
454
507
488
463
526
502
464
525
499
478
524
485
464
510
472
472
511
467
476
520
462
475
519
459
475
513
404
441
537
660
950
916
610
544
539
461
489
495
445
490
490
457
503
494
454
497
479
446
499
473
459
513
470
459
513
470
470
540
497
495
549
498
512
560
504
516
547
477
489
519
450
480
509
457
483
498
443
486
504
443
489
496
446
494
486
453
492
482
455
512
479
461
513
475
462
520
477
455
514
484
474
520
476
480
523
468
484
514
455
479
520
454
482
517
467
496
515
470
514
521
432
449
489
523
762
983
812
629
563
492
522
495
468
527
487
473
534
487
471
538
499
480
533
483
487
530
478
498
534
473
510
551
493
530
568
519
553
582
522
557
568
517
546
539
495
533
525
479
535
526
495
540
514
496
546
512
491
549
518
502
558
507
509
555
499
504
557
511
515
558
492
504
551
486
511
557
497
505
534
480
512
528
475
508
517
583
702
714
696
757
759
723
785
768
728
772
713
633
716
743
928
1004
1004
993
792
649
688
683
613
635
630
571
612
608
565
607
594
553
593
574
534
597
575
546
595
555
535
596
560
541
614
576
564
619
558
563
607
542
546
572
512
525
552
482
508
540
485
521
537
475
510
521
468
518
520
472
524
498
464
514
493
469
534
495
471
529
483
475
528
484
468
524
489
479
528
475
469
516
469
473
493
442
470
500
445
466
489
447
483
506
450
484
495
395
426
447
522
855
981
734
553
472
422
471
440
401
451
428
404
457
421
418
477
419
416
465
407
412
463
419
430
474
417
439
478
436
470
514
473
507
524
473
510
511
453
493
483
434
475
459
414
457
449
414
468
438
414
472
439
420
479
430
419
480
426
428
485
449
458
507
447
452
494
438
453
494
448
470
495
454
491
495
447
485
501
450
490
484
444
497
479
440
494
472
446
508
483
459
514
495
461
463
431
467
664
923
945
754
538
490
517
452
461
507
442
461
508
443
462
491
435
469
487
437
476
487
452
496
502
459
506
503
472
535
520
490
541
517
501
567
534
502
557
498
471
524
464
455
515
454
464
514
448
463
513
453
464
512
459
483
519
459
499
531
467
493
509
457
504
497
452
508
492
452
513
489
453
513
495
475
521
495
472
515
471
463
505
464
459
517
451
453
508
457
478
527
462
488
527
434
416
473
457
690
996
884
668
556
467
501
495
439
502
493
443
487
480
440
495
467
440
503
479
458
515
479
471
534
490
487
548
498
501
544
512
530
572
518
534
577
504
520
557
487
505
538
481
515
530
468
517
521
475
525
521
478
530
519
485
539
519
501
551
513
494
554
509
487
556
504
495
553
495
502
567
501
515
580
506
513
553
478
501
537
477
510
543
472
509
541
489
524
538
495
529
467
430
524
626
842
998
805
593
604
546
498
550
519
487
526
473
478
535
478
484
537
476
481
534
479
486
532
477
501
548
490
515
544
491
528
562
508
553
569
514
545
537
487
532
504
464
527
503
471
525
490
474
537
503
480
532
486
495
540
480
499
558
487
504
563
500
515
557
500
513
563
505
525
559
505
530
563
513
540
536
489
522
521
484
540
525
489
542
511
492
551
517
490
551
504
426
500
489
649
995
964
735
617
520
495
538
482
478
519
469
497
541
478
500
540
470
512
536
476
516
526
470
524
537
486
542
533
500
574
555
521
583
564
530
587
542
511
552
510
503
554
506
495
530
486
496
540
482
493
535
482
505
548
483
501
538
483
520
544
478
518
528
470
512
529
477
532
531
477
524
512
494
549
524
492
546
505
483
537
479
475
534
474
472
535
480
483
535
484
493
539
472
427
481
451
628
970
951
742
587
497
512
512
454
497
494
445
503
498
456
504
490
455
505
484
467
519
479
460
513
477
475
538
492
499
570
520
512
569
516
527
571
506
509
539
466
482
518
462
491
513
453
488
515
455
493
504
453
495
483
451
511
484
445
512
493
462
514
481
463
516
468
451
515
463
452
522
466
460
523
478
478
533
483
484
517
458
481
511
444
479
509
444
477
500
456
510
514
450
500
494
392
435
454
543
896
984
757
586
497
455
516
477
455
507
452
445
508
449
448
501
447
457
497
447
466
516
466
492
527
479
511
540
483
533
558
500
555
567
503
550
553
494
539
527
473
523
492
445
510
484
457
510
475
462
517
474
470
529
481
484
530
465
477
524
467
472
516
455
482
517
455
484
510
456
506
531
466
513
516
477
530
515
478
532
525
478
523
485
446
522
495
478
537
491
467
525
484
473
542
482
449
467
441
504
789
993
888
676
504
507
524
452
468
504
436
468
501
440
476
498
444
488
503
446
488
488
455
510
493
464
523
502
480
544
504
494
555
509
505
570
517
513
555
486
474
520
453
468
505
444
466
504
446
464
501
446
487
519
461
492
506
458
503
502
446
502
498
450
508
498
461
515
497
475
531
495
482
549
504
492
556
496
480
540
484
479
525
474
496
536
473
491
539
473
499
545
477
513
517
406
462
535
642
965
974
699
588
551
484
524
506
467
513
488
455
509
475
455
527
487
474
526
479
480
539
483
486
542
486
507
553
500
522
572
516
543
599
540
564
582
510
529
546
480
524
533
469
520
520
472
526
518
486
539
510
479
549
505
479
544
501
488
543
491
481
549
488
495
553
489
493
550
483
493
551
493
512
551
486
509
537
467
504
522
462
522
534
468
519
521
472
527
512
470
527
503
446
450
450
491
735
967
882
691
534
496
530
463
463
518
450
453
505
456
464
504
450
474
518
461
479
517
462
492
518
461
507
529
483
528
534
486
541
547
501
563
548
502
537
500
476
518
469
457
515
456
444
507
455
445
505
455
458
519
460
468
507
448
468
508
452
468
504
447
476
505
446
480
503
390
282
270
213
242
241
211
269
241
208
271
239
200
273
240
216
300
256
232
299
273
267
329
273
279
345
282
271
296
268
333
604
808
741
527
352
366
382
321
360
372
309
364
385
334
388
395
357
408
397
366
423
405
374
447
423
400
471
435
426
490
460
466
529
481
488
545
490
498
529
455
465
508
435
458
498
438
473
495
449
484
504
443
488
499
443
497
496
447
495
488
440
507
495
463
524
491
473
525
488
475
534
485
476
539
480
476
546
479
483
546
483
491
539
475
501
538
472
504
541
482
513
534
478
521
533
491
536
486
420
489
599
843
1001
809
560
566
503
481
527
464
484
549
473
481
535
464
485
525
466
492
528
456
496
525
463
502
525
473
534
540
488
545
554
509
565
559
524
561
523
482
535
497
466
528
484
464
525
472
462
523
472
473
530
466
477
532
469
489
547
483
513
550
475
509
547
480
512
541
484
518
536
487
524
525
485
556
541
502
558
532
489
546
519
487
547
501
489
557
503
494
567
512
504
569
509
515
523
446
481
629
844
999
901
612
557
570
498
525
537
472
508
523
468
516
516
474
529
517
472
533
513
479
545
517
492
557
523
510
572
541
531
599
551
555
612
548
543
587
514
524
564
486
496
537
470
497
532
470
496
525
468
505
531
486
523
521
469
520
518
473
524
507
469
525
503
488
543
497
485
547
505
503
555
506
495
551
490
487
533
475
484
537
469
488
540
482
504
544
485
522
553
481
468
497
474
640
917
971
791
611
530
561
528
477
534
509
477
529
493
475
536
497
476
539
490
484
544
495
496
552
500
520
569
498
527
583
511
536
587
539
561
595
532
544
550
497
539
544
490
531
530
481
529
514
479
536
510
476
537
506
486
549
506
487
546
491
489
544
490
487
550
481
486
538
472
493
536
474
494
543
482
493
534
472
507
517
459
496
499
454
504
498
455
523
506
463
526
499
462
525
495
411
479
479
598
946
956
717
594
509
484
522
455
457
518
451
457
506
456
471
507
440
464
501
452
485
516
459
485
504
473
514
520
478
536
539
501
560
546
518
586
553
496
542
500
467
525
470
454
511
466
461
524
470
479
534
481
487
528
470
496
535
470
491
525
457
498
521
464
509
522
462
518
516
461
513
502
453
509
501
468
516
504
466
520
490
470
516
476
468
523
469
466
523
454
460
527
460
474
533
461
417
467
427
583
937
978
779
596
485
506
516
450
489
503
450
499
491
444
506
501
454
499
481
456
517
475
459
525
484
472
539
497
489
561
506
504
574
523
532
583
521
520
553
478
492
527
453
489
516
452
493
509
448
497
515
463
514
511
463
517
508
459
516
499
460
513
484
466
530
489
472
530
480
473
533
474
481
533
465
486
539
481
491
536
482
500
543
476
491
520
462
504
531
468
510
522
474
521
518
474
530
522
450
466
466
495
794
999
904
693
533
485
534
477
457
508
459
468
525
460
464
520
460
471
520
452
478
521
454
489
521
460
503
538
484
527
546
495
551
554
515
565
552
494
534
504
466
519
482
451
515
469
447
511
461
444
508
458
456
507
450
452
506
456
472
526
460
479
522
449
477
514
453
486
509
447
490
514
457
505
517
464
511
511
471
528
510
472
529
496
463
511
470
458
521
461
454
530
482
477
523
465
480
534
469
450
476
433
509
752
933
864
668
512
519
526
448
489
507
451
493
505
459
496
494
454
503
487
456
511
489
458
522
494
471
542
502
484
556
515
503
567
516
519
584
517
514
554
486
493
531
475
498
531
466
498
528
454
492
529
476
510
525
475
522
519
462
522
509
477
534
510
483
545
518
485
546
500
482
549
501
487
539
500
498
549
493
493
548
486
485
530
466
497
541
471
501
535
471
508
533
476
525
532
457
447
466
459
633
906
968
805
618
537
554
511
477
536
493
464
523
479
467
528
478
478
536
471
481
528
466
484
528
464
487
535
475
508
547
485
527
563
505
548
567
502
540
536
473
524
503
463
511
490
453
517
493
462
523
482
462
521
477
454
521
476
470
534
472
479
525
457
479
545
473
483
524
456
488
527
462
487
521
458
500
526
471
506
524
481
519
507
467
515
489
447
518
494
469
520
472
454
517
481
468
534
477
422
470
439
544
873
981
804
639
506
489
522
455
482
523
461
488
513
444
485
502
441
483
495
442
489
490
450
506
492
455
520
502
474
540
509
487
543
514
508
573
516
496
542
482
487
538
468
470
522
459
468
515
457
481
516
459
490
515
448
494
516
460
505
511
459
509
506
455
507
493
441
504
481
447
502
478
462
530
486
467
534
479
482
539
471
476
531
469
469
524
456
467
518
453
480
528
460
479
518
456
486
515
454
457
444
413
525
784
980
904
654
507
534
489
449
508
469
453
513
466
441
500
453
442
502
457
455
507
452
456
520
454
466
525
459
486
534
472
501
543
492
539
567
497
530
532
472
507
502
450
493
481
440
490
476
443
495
472
452
507
475
448
505
466
455
518
470
460
505
457
458
507
448
464
521
457
468
501
448
476
511
450
477
507
456
502
506
467
508
522
471
516
504
457
518
497
461
520
498
472
532
491
469
538
497
469
473
443
487
697
933
940
765
556
524
551
476
493
535
462
491
528
455
497
538
474
508
527
479
524
540
481
532
536
494
555
544
506
578
556
518
582
558
535
603
556
542
588
524
500
555
500
490
534
472
490
550
486
497
541
481
505
550
481
514
548
480
512
535
474
521
540
486
534
529
478
530
518
484
536
516
483
549
516
491
565
522
498
548
494
481
542
482
486
550
487
496
549
489
505
553
485
510
517
424
488
592
736
995
919
633
574
566
487
521
519
461
510
506
468
525
507
465
530
502
476
529
480
472
532
479
473
532
483
495
561
512
521
573
516
529
580
518
536
573
490
515
543
469
502
531
461
499
520
464
511
504
452
509
498
455
513
488
452
516
489
464
534
503
481
538
491
482
549
487
482
542
488
484
539
477
489
558
507
512
558
496
515
541
477
500
522
459
510
525
467
517
522
475
525
521
475
516
489
410
474
479
573
919
988
781
622
521
485
546
490
475
528
466
472
525
457
471
532
457
473
519
459
489
532
466
497
528
463
499
524
473
532
542
493
548
551
509
560
538
494
541
518
480
522
487
468
524
484
470
527
470
468
528
472
478
530
463
480
543
480
496
538
463
489
541
470
491
531
461
498
518
451
500
518
468
525
515
468
533
510
471
540
512
475
524
481
448
513
484
477
529
480
481
538
473
469
531
471
473
509
394
430
544
695
994
981
685
545
551
474
499
511
446
486
494
434
484
494
445
491
476
444
506
479
444
509
475
442
512
481
467
522
489
484
546
498
509
571
507
517
566
488
490
534
470
483
523
446
472
510
448
481
509
450
482
509
457
499
505
457
515
503
467
531
507
470
522
492
472
541
499
467
527
477
468
532
481
480
549
482
480
550
493
490
553
490
502
548
473
482
528
465
492
522
464
501
522
462
507
517
473
533
504
403
472
497
627
988
980
733
595
524
488
533
480
459
524
475
466
527
469
467
531
471
479
528
470
490
535
468
500
554
497
526
555
499
542
568
515
554
570
523
569
566
512
550
527
480
527
499
465
528
493
469
527
481
476
528
480
472
526
469
466
525
475
487
539
474
491
540
469
493
535
466
504
534
466
506
535
477
531
542
478
527
522
470
520
507
457
516
503
470
535
493
468
530
498
481
542
495
473
495
418
453
592
751
967
879
593
541
563
470
488
528
460
490
520
450
487
512
449
494
516
457
507
509
457
505
503
468
524
510
479
541
510
499
568
533
519
588
543
527
580
513
507
560
495
497
535
470
481
543
475
483
536
474
497
530
471
501
526
472
518
538
479
516
526
477
519
515
476
538
516
478
538
505
479
554
511
493
568
512
490
555
497
483
540
493
494
554
486
499
545
482
509
556
491
501
511
426
486
585
737
1000
882
606
577
542
479
546
517
488
548
502
484
546
499
480
544
490
486
547
483
483
538
476
495
548
479
507
556
497
530
563
509
550
578
516
546
558
491
534
533
469
518
510
461
518
503
459
522
484
456
522
489
467
532
490
475
536
480
479
540
485
491
541
485
487
539
473
498
547
473
493
536
481
508
539
475
505
516
468
503
502
460
511
506
457
520
501
462
532
501
466
516
482
414
458
444
538
878
985
800
632
508
478
521
457
461
512
445
465
504
431
454
493
428
459
485
430
470
492
438
488
505
457
506
516
471
530
522
491
546
523
492
556
524
488
542
486
468
533
473
459
515
461
463
523
453
468
518
453
474
543
485
494
532
456
489
518
457
496
514
454
496
513
453
501
506
460
514
495
455
528
502
457
525
499
470
538
489
460
516
476
456
525
479
473
546
482
480
536
474
492
517
399
443
544
679
989
978
697
564
559
483
506
517
456
503
499
452
505
494
460
513
492
464
522
484
447
514
471
464
526
480
473
540
498
492
558
504
515
577
524
528
559
492
505
545
474
491
533
471
494
519
455
495
519
470
516
527
470
517
507
472
522
510
477
533
510
484
538
505
488
543
506
493
546
489
487
552
495
506
553
481
511
561
490
505
551
482
512
549
484
515
539
466
514
533
464
515
524
474
491
456
433
550
766
989
938
663
518
553
500
472
526
476
458
525
472
466
523
471
478
535
469
476
538
470
494
543
469
498
544
487
523
563
499
535
562
507
549
558
507
552
538
478
521
506
465
519
490
458
514
483
462
525
480
472
535
488
483
555
498
483
547
500
502
553
480
491
541
475
493
531
478
500
541
486
526
546
494
531
541
491
532
525
462
515
511
463
517
501
472
532
500
470
535
499
479
494
441
468
635
834
966
836
597
537
569
486
484
540
473
485
539
480
486
523
458
489
518
454
501
518
471
517
522
472
531
537
496
547
530
505
562
541
514
573
536
508
565
504
479
534
476
474
541
476
468
526
466
482
522
454
482
521
463
494
537
470
508
548
490
525
539
482
530
536
477
525
515
472
530
513
475
532
529
505
554
518
489
551
504
486
535
478
477
545
487
488
547
480
493
558
491
497
546
478
449
488
447
591
901
987
820
630
515
527
518
462
514
498
453
503
480
446
514
493
457
516
480
463
525
481
467
523
471
471
541
487
486
554
506
525
578
525
539
585
519
526
562
489
494
521
465
489
504
446
490
505
445
489
491
448
504
499
456
506
496
472
525
494
474
536
495
473
534
492
484
540
487
486
533
468
481
546
489
505
557
488
507
550
480
511
536
469
498
523
457
504
527
473
521
517
466
521
520
479
531
459
416
502
586
846
1000
828
572
567
503
484
531
469
466
527
465
476
532
460
471
523
456
469
520
466
487
525
467
495
521
465
518
540
492
543
548
505
558
548
504
561
541
490
532
494
460
516
482
461
528
478
464
525
469
458
532
482
481
543
471
474
527
466
487
531
470
489
531
462
490
517
455
503
516
448
494
497
451
497
497
454
522
501
466
520
493
459
524
486
455
523
477
464
520
464
458
525
472
464
522
471
470
464
414
456
612
840
971
809
545
515
525
447
482
492
432
471
490
445
492
490
436
481
472
442
501
487
455
511
486
459
524
485
469
543
493
500
583
529
527
590
525
528
567
489
492
536
461
477
513
446
472
506
458
498
525
450
490
520
470
522
526
475
524
517
482
536
510
481
546
507
475
544
507
491
543
494
484
553
507
489
553
493
494
542
487
496
533
464
497
538
469
509
538
475
509
534
477
517
528
433
473
506
550
830
994
805
651
574
501
539
497
473
528
485
463
527
483
466
537
478
472
531
470
484
538
481
493
548
486
499
553
491
528
566
517
552
579
528
570
588
518
555
554
492
534
521
477
538
523
482
534
502
479
548
513
492
550
512
494
549
502
497
556
505
510
553
490
501
556
494
508
552
487
521
545
477
520
551
484
536
559
488
526
529
472
514
519
477
527
512
466
527
503
476
535
511
487
534
439
431
523
596
862
996
764
566
568
481
469
517
450
472
518
448
469
498
440
475
508
443
481
506
447
496
508
450
508
526
480
531
525
494
556
538
513
582
551
525
581
525
492
545
487
473
532
469
471
533
474
486
536
464
491
532
464
488
529
463
502
544
475
509
531
473
516
528
469
516
520
465
521
507
459
519
497
463
533
506
479
548
499
475
528
479
464
523
469
473
538
470
472
525
462
487
543
475
495
531
405
447
520
611
942
992
738
566
545
472
510
511
458
513
485
443
504
493
459
509
475
455
512
472
459
524
475
472
546
489
484
548
502
515
571
517
532
577
514
531
579
505
513
541
471
496
527
456
501
520
454
499
503
455
506
498
456
518
506
466
528
500
473
541
506
477
533
500
476
537
485
481
541
482
490
552
489
508
570
490
512
553
476
499
543
463
490
528
464
505
532
472
517
528
475
522
521
475
538
477
413
499
560
788
1001
860
596
577
508
494
537
467
477
526
458
470
520
450
477
508
443
472
508
448
498
524
464
513
524
473
526
517
477
534
518
483
542
519
494
561
528
498
540
480
477
537
476
472
530
465
472
529
463
472
520
456
482
532
457
485
529
463
501
537
473
506
523
456
497
508
455
509
510
475
537
509
474
541
506
473
535
490
466
528
485
463
523
472
475
535
463
473
536
471
470
482
412
452
601
785
953
805
546
530
539
459
494
521
462
505
513
452
498
502
446
501
496
455
505
490
469
533
495
468
530
493
472
542
516
510
576
525
527
587
525
528
576
498
496
539
460
486
528
458
484
520
456
501
522
461
504
522
468
514
525
470
522
522
477
528
503
467
531
503
476
533
489
483
556
498
486
555
504
496
553
489
481
547
485
493
548
484
499
550
492
517
550
485
522
504
413
488
575
730
999
926
645
589
570
501
538
509
473
532
496
469
529
485
472
534
491
485
544
484
484
544
479
490
558
504
512
575
520
533
587
527
552
588
528
559
572
497
525
542
488
527
519
462
520
516
470
523
498
461
525
490
467
533
484
468
537
478
461
526
482
477
536
476
486
540
474
485
546
492
501
555
490
510
543
477
505
526
462
497
507
447
488
499
450
500
509
475
520
497
403
461
467
571
930
979
738
593
513
477
525
480
472
531
470
472
528
466
475
527
458
471
529
458
482
532
468
501
536
476
515
530
470
528
551
489
542
551
508
559
544
493
530
509
476
533
489
459
522
479
467
522
471
467
528
458
453
519
455
468
528
466
486
526
453
482
526
452
487
512
450
492
516
462
504
518
470
505
499
444
503
489
449
506
487
443
500
476
450
514
482
461
530
484
454
475
437
469
703
949
952
746
527
502
535
459
471
522
459
483
514
448
478
511
448
487
509
461
504
508
461
521
513
474
535
519
485
554
529
510
576
540
527
583
533
507
559
507
500
549
481
477
524
465
482
536
463
493
536
467
492
529
465
500
532
464
504
526
471
511
527
480
526
522
478
535
524
482
543
524
490
550
531
504
547
498
492
544
484
489
545
484
481
538
475
486
543
480
500
550
466
433
488
466
672
999
932
708
554
486
518
495
458
511
489
458
520
477
461
525
471
455
517
469
458
521
467
466
524
461
473
537
484
499
546
490
528
563
494
541
561
489
514
520
452
495
507
452
504
494
451
511
495
453
514
488
451
521
474
457
527
480
469
539
487
478
550
487
489
551
477
481
541
479
497
545
478
510
552
497
523
547
482
516
530
465
524
533
468
520
517
463
522
504
471
538
504
459
479
442
462
639
859
960
807
576
522
553
474
472
538
468
478
525
458
480
532
459
475
519
451
488
525
461
501
524
470
526
540
487
546
543
499
557
548
508
569
550
510
554
511
482
543
496
464
522
471
464
528
469
472
541
476
486
542
477
488
539
483
506
545
485
525
553
492
523
545
488
524
533
480
534
547
500
549
551
504
550
531
495
543
507
491
549
506
488
554
502
494
560
506
509
569
485
433
512
504
653
980
962
749
620
515
517
536
468
513
529
461
500
519
456
505
504
454
511
504
462
522
499
459
525
492
473
540
502
487
557
516
504
576
520
515
577
522
514
561
495
499
545
474
497
537
461
483
529
463
492
518
463
509
523
467
519
523
470
525
525
469
536
512
478
543
508
474
537
504
480
544
516
497
548
498
490
548
495
485
540
472
492
548
470
491
541
480
517
550
476
507
533
460
469
462
429
541
792
973
881
638
498
531
504
461
518
487
456
516
484
453
517
471
461
525
463
453
518
456
462
537
473
474
529
475
492
540
484
511
561
500
526
563
503
541
555
480
509
514
449
498
499
448
501
491
456
504
484
457
512
485
459
523
484
470
536
487
477
528
476
468
529
468
473
526
462
481
536
463
489
533
454
493
529
465
517
528
462
512
537
469
512
526
476
536
520
470
525
508
475
540
512
479
531
434
433
526
629
934
998
782
557
580
502
483
531
459
476
518
451
477
520
452
479
515
456
495
513
458
503
523
455
504
520
472
528
523
490
551
540
521
578
549
519
572
527
496
542
490
468
525
478
467
529
468
469
538
474
475
528
467
488
533
465
499
537
472
507
531
461
507
524
463
513
529
473
520
511
469
531
515
475
528
504
467
539
494
467
537
493
477
533
490
472
530
469
460
524
462
478
532
460
478
540
475
491
508
395
448
522
667
992
972
682
549
534
462
498
485
432
485
486
449
501
481
446
512
483
462
514
480
466
523
480
470
540
483
487
555
497
511
568
519
536
592
527
541
581
507
517
543
474
504
527
459
495
506
447
495
498
454
496
496
455
509
495
461
520
489
467
525
486
475
543
485
470
540
481
478
539
476
483
544
483
501
564
487
516
557
487
506
537
474
510
540
477
527
540
476
521
527
477
536
539
500
550
483
431
522
581
773
1000
808
594
598
517
496
545
482
495
537
465
478
523
457
491
527
466
492
517
462
502
525
468
521
542
492
541
545
507
566
549
512
582
554
528
590
540
499
550
499
482
538
484
483
539
475
484
536
472
485
544
476
488
529
462
501
539
472
501
533
465
506
528
474
523
524
469
522
514
468
526
514
479
538
504
478
537
504
475
530
486
474
539
484
475
536
481
485
546
489
499
548
474
480
476
429
488
693
920
949
742
539
541
534
464
511
520
461
505
505
449
508
500
457
506
481
447
510
487
463
526
496
486
540
494
490
545
496
496
561
500
507
575
506
515
559
483
486
521
451
474
511
438
465
496
444
482
499
445
487
497
456
516
516
464
513
502
472
522
490
464
534
499
468
531
484
471
536
487
482
535
479
480
550
496
506
550
481
501
537
467
490
526
465
509
537
473
517
529
481
532
527
474
532
529
437
461
468
496
802
998
893
693
551
503
547
493
467
534
477
464
525
471
469
534
481
486
545
468
482
536
465
490
538
476
509
550
492
526
554
502
554
573
530
575
565
514
562
529
479
528
504
466
516
486
459
523
478
464
527
481
467
534
482
472
529
464
472
526
457
468
517
459
485
535
467
495
518
451
497
519
467
508
520
470
516
523
472
523
527
487
528
497
464
521
488
459
523
470
462
531
477
465
535
483
479
545
472
426
482
442
592
950
967
757
599
485
493
515
441
473
499
450
490
502
447
493
495
446
499
486
454
510
493
456
517
510
483
536
492
490
563
526
514
579
529
523
591
528
518
562
490
507
553
474
486
534
458
482
517
454
489
524
461
494
514
453
503
513
466
516
513
469
514
506
471
530
507
478
533
492
477
530
490
479
548
490
478
544
486
497
547
495
500
548
485
505
541
471
494
539
473
505
542
472
510
525
461
512
529
478
478
466
446
601
846
968
838
616
511
546
494
459
524
476
455
518
477
469
527
468
475
533
472
485
546
475
500
554
476
499
551
497
521
564
500
539
577
520
567
582
520
564
568
495
539
520
464
518
492
455
515
486
457
521
481
469
535
483
472
533
486
486
543
486
487
543
471
485
534
469
504
554
471
497
542
469
515
553
479
523
541
479
527
521
461
516
510
475
528
509
478
531
496
463
532
499
473
537
448
406
500
529
739
1000
824
603
581
490
500
525
452
489
506
451
499
514
455
505
511
463
508
510
472
525
505
470
538
505
484
555
517
502
568
523
517
585
537
534
584
521
513
552
488
488
529
470
492
531
460
492
537
479
503
531
466
503
514
456
511
511
460
514
511
473
531
513
469
537
512
474
530
494
473
527
483
480
561
500
485
544
497
493
535
472
475
538
474
491
550
477
502
545
480
505
541
481
515
485
415
491
602
818
1000
822
560
562
515
473
526
479
463
518
466
463
525
463
464
528
462
475
521
462
481
524
454
481
528
463
499
537
478
527
552
498
549
564
511
550
540
494
530
507
468
515
487
458
522
483
467
526
478
464
521
478
465
532
480
480
535
462
473
534
474
497
537
463
496
531
466
499
526
454
490
526
480
518
521
471
524
521
472
521
504
460
517
506
472
532
493
478
535
488
482
539
492
466
472
435
485
734
975
941
728
528
509
542
464
474
511
445
465
499
443
475
499
442
476
490
434
484
485
441
498
498
453
518
518
489
548
518
501
567
530
511
577
531
512
561
499
482
523
458
465
527
457
459
520
459
476
519
457
479
511
454
488
515
451
494
509
459
516
528
473
524
528
473
526
510
479
533
502
474
537
494
487
558
500
479
542
482
473
539
488
476
535
484
499
552
481
504
563
491
504
506
422
476
600
785
997
858
576
545
535
457
515
520
473
528
515
468
526
503
472
530
503
476
537
489
476
540
487
474
549
499
499
567
510
522
582
519
534
580
519
543
580
493
507
529
460
500
524
468
511
524
466
519
528
478
536
531
483
535
519
479
539
517
487
555
517
499
562
517
506
570
515
513
579
513
522
574
493
493
545
480
495
539
473
507
545
482
518
547
491
531
554
494
537
505
418
492
558
731
1001
899
633
606
541
504
555
494
486
539
474
476
536
467
483
534
461
486
530
466
489
533
467
501
535
471
510
528
483
537
550
508
562
550
512
561
521
479
533
499
462
517
471
449
517
471
461
522
465
460
527
473
478
537
479
500
551
477
501
546
483
514
540
458
492
516
455
490
511
473
517
520
472
521
514
468
529
506
457
510
495
453
511
480
462
531
486
472
525
474
474
492
416
449
613
826
993
870
586
521
549
477
493
519
451
492
514
438
500
528
447
484
503
446
497
503
462
508
492
454
506
486
463
525
491
483
561
526
506
561
523
512
553
485
461
517
478
469
511
426
456
517
444
470
513
457
488
517
450
495
525
471
509
515
468
527
526
463
526
525
492
530
510
479
542
496
465
549
512
483
547
501
481
543
499
477
526
480
498
537
464
489
552
488
490
532
485
517
531
417
465
520
637
981
997
760
587
561
476
520
499
446
507
493
451
522
519
481
538
505
480
535
487
479
541
483
487
553
494
487
565
528
540
598
545
550
592
533
559
598
522
531
555
481
514
530
471
519
532
481
524
521
466
518
521
469
520
500
470
534
500
474
538
496
481
552
506
491
549
492
496
548
489
504
555
500
508
548
489
516
554
472
506
558
487
513
538
474
515
535
476
529
532
474
476
458
464
629
867
981
848
619
527
555
501
478
540
492
477
535
469
466
536
474
478
531
467
477
534
463
494
540
464
494
544
480
518
554
492
545
572
499
539
548
496
542
521
462
527
499
451
512
488
460
528
494
469
538
493
469
532
490
481
538
481
480
549
482
490
546
489
494
537
472
501
555
488
526
561
487
527
536
467
509
516
462
514
518
468
529
515
465
529
515
479
535
493
422
477
470
539
829
989
814
645
525
483
518
452
454
507
445
456
497
441
461
497
432
464
505
443
470
496
443
487
510
460
507
513
471
521
510
480
543
532
500
565
532
491
540
487
471
525
469
458
527
468
465
537
477
485
534
474
486
525
471
485
527
465
496
524
455
497
529
456
497
518
464
514
531
484
521
527
479
528
510
471
525
487
465
543
496
468
537
499
489
554
488
481
549
482
430
498
478
630
974
952
730
610
511
502
529
460
485
516
451
494
511
452
499
505
458
513
502
458
537
521
467
531
511
479
534
507
495
563
519
511
573
534
537
593
528
511
564
492
498
543
468
492
527
463
485
532
466
482
520
455
496
523
466
505
522
465
512
511
459
516
501
460
521
499
465
532
504
484
543
500
480
524
482
468
526
468
470
529
475
478
523
467
491
546
484
505
550
478
487
465
423
506
722
952
951
717
529
541
512
450
505
491
448
495
477
448
502
473
441
496
460
441
508
459
446
510
464
463
516
463
477
540
479
502
565
504
529
572
505
527
555
481
510
533
458
490
516
454
498
505
453
503
500
456
513
503
473
533
509
467
524
494
472
528
480
470
537
483
477
544
485
486
550
494
494
551
483
495
537
464
498
536
467
504
535
464
510
526
466
524
532
467
515
504
412
458
476
565
933
996
800
608
511
470
518
468
453
510
457
441
500
442
443
498
440
450
497
437
455
505
447
476
509
458
496
528
482
530
548
488
548
569
509
554
551
484
535
519
453
506
490
452
506
469
442
514
475
439
512
481
469
527
477
473
534
481
478
532
476
492
545
474
496
543
472
500
545
491
519
544
484
523
534
477
528
524
470
522
516
465
526
516
469
540
517
481
544
501
446
470
459
527
792
978
852
685
539
513
540
482
495
529
456
488
538
473
489
524
465
500
526
462
511
521
459
514
524
475
534
519
480
553
539
503
566
544
523
583
544
517
568
508
497
540
481
487
546
476
482
546
477
486
546
473
489
545
478
514
557
483
520
552
482
518
546
484
527
534
482
547
540
508
574
553
519
571
541
500
552
504
482
554
497
483
550
494
495
556
487
488
542
479
479
483
431
493
694
913
963
750
533
524
523
443
501
519
440
485
497
441
489
489
446
505
487
447
504
483
454
515
484
464
527
488
485
551
496
489
558
521
515
570
518
519
562
485
485
531
469
489
523
458
490
521
459
494
516
462
504
507
465
520
521
477
528
515
481
535
503
469
529
497
474
539
493
470
546
499
485
550
491
481
540
466
473
529
460
482
530
458
484
529
463
498
527
461
512
531
440
441
474
459
684
989
935
733
576
499
531
503
469
524
484
465
528
479
460
524
471
460
527
470
467
533
467
473
541
470
495
547
479
512
557
500
533
572
509
539
569
496
525
531
468
513
510
447
505
495
447
504
487
452
506
479
458
523
496
480
537
490
482
546
483
473
538
482
484
538
470
487
533
455
482
538
476
491
534
466
498
529
475
500
499
452
497
501
452
508
512
470
531
507
472
528
494
408
471
476
625
997
949
679
566
480
480
516
442
466
500
434
459
502
434
467
489
439
482
499
447
497
507
462
519
505
476
536
511
481
545
516
496
572
541
521
580
533
509
549
481
481
531
452
459
523
454
455
509
455
468
505
457
483
509
456
493
522
477
516
517
462
512
514
472
534
510
470
526
508
471
542
517
483
551
505
475
530
490
466
525
476
466
522
459
470
530
473
489
539
472
499
521
406
458
547
666
981
958
666
569
555
477
519
517
457
520
522
479
524
494
458
519
489
465
526
488
471
547
493
478
552
494
485
549
499
512
559
498
517
572
507
532
579
500
514
549
473
496
531
473
508
525
467
509
515
467
515
509
484
532
516
482
536
511
484
543
508
486
549
503
502
567
512
519
592
513
521
576
502
512
570
492
504
559
492
512
543
482
519
550
477
519
544
484
506
456
436
530
667
895
985
736
543
565
508
461
527
491
472
528
482
476
543
481
479
541
476
480
538
478
493
552
486
503
560
499
515
567
515
539
574
520
560
579
514
556
558
498
534
529
474
524
505
468
540
507
470
531
504
478
535
495
475
533
483
481
544
485
501
556
498
511
555
477
501
553
475
506
560
499
530
555
489
526
531
464
507
521
473
522
506
463
524
511
471
530
502
473
540
497
417
484
479
623
978
954
707
592
510
485
525
455
460
512
450
455
504
442
458
502
442
466
493
430
474
489
440
489
496
458
508
511
466
524
515
480
538
521
495
548
514
487
533
480
457
509
455
452
512
450
446
513
443
449
506
444
460
517
452
471
511
449
481
514
445
482
505
447
487
495
440
487
486
446
499
499
454
503
489
450
505
482
456
497
459
445
509
468
465
517
464
463
522
472
471
520
415
411
484
512
804
1000
799
576
517
462
498
483
432
479
465
426
484
462
442
500
460
442
493
452
435
498
448
436
496
449
457
515
455
472
533
479
500
555
486
514
543
480
503
516
448
483
491
434
486
494
447
491
484
436
489
483
451
515
487
455
527
489
477
550
494
475
539
484
481
541
485
493
549
480
492
545
486
505
553
483
502
541
474
503
533
474
506
517
464
508
517
470
521
516
472
534
513
429
475
475
542
877
997
840
639
533
501
548
474
472
541
473
464
530
474
478
518
450
476
527
459
477
522
461
495
526
463
509
531
481
527
535
493
544
542
497
555
535
483
540
504
476
538
493
467
527
483
477
533
477
468
538
483
472
527
466
475
528
472
489
530
465
496
532
458
496
529
464
513
525
482
536
528
487
543
538
476
533
518
474
523
492
465
532
489
471
546
498
483
543
489
463
476
443
494
693
910
950
772
557
533
555
468
493
538
473
490
521
463
488
515
459
495
502
447
505
507
465
519
497
462
527
505
478
546
520
504
573
536
519
581
528
514
564
496
492
549
473
486
542
476
494
544
469
503
544
471
513
549
478
512
537
484
529
544
480
524
542
492
548
535
495
550
527
503
570
539
507
577
524
494
556
495
491
562
496
491
551
499
506
560
497
517
561
490
515
522
423
479
600
769
999
907
620
568
554
480
522
524
464
512
503
459
522
495
458
526
501
473
537
494
484
551
503
497
565
502
505
565
513
521
572
512
537
588
524
543
571
509
526
539
472
516
525
468
525
527
464
513
519
467
521
515
474
536
519
487
538
500
480
546
499
477
549
499
485
545
493
486
542
487
502
550
490
510
554
471
490
526
452
495
527
452
490
517
466
507
511
457
521
522
456
465
452
439
616
896
983
833
594
504
536
482
457
507
457
447
505
451
449
508
451
453
504
448
466
510
453
463
512
461
487
522
460
500
534
485
538
552
502
544
548
493
533
514
463
507
478
438
501
471
434
502
471
457
512
472
458
519
472
469
527
465
469
525
461
481
538
463
483
527
461
498
537
464
498
535
474
522
537
478
521
526
482
524
495
457
524
497
460
519
488
464
523
486
471
536
489
461
476
429
459
657
911
987
821
561
514
533
456
472
517
445
472
506
447
479
511
460
488
503
453
496
500
453
502
486
444
507
507
467
526
511
487
551
533
522
573
523
510
565
498
484
529
460
461
515
450
457
505
448
471
511
447
481
524
457
491
523
457
495
514
451
504
508
459
522
509
460
524
515
472
527
499
487
547
496
484
551
509
488
547
492
479
542
487
481
544
488
500
549
478
500
546
478
485
474
433
514
719
929
939
715
525
542
523
459
511
504
457
523
503
451
517
502
460
524
495
461
524
483
463
523
471
469
534
477
485
551
496
503
565
501
525
572
514
538
557
479
514
529
448
496
517
449
505
521
459
507
512
461
523
498
456
524
504
471
530
490
471
546
492
474
538
487
487
554
487
484
553
487
492
547
481
503
541
476
494
522
462
502
538
475
514
531
470
520
536
489
532
492
428
516
593
769
1000
824
590
580
515
486
537
480
477
529
467
488
533
470
491
532
468
492
529
464
504
527
464
509
528
473
519
536
491
551
552
510
569
565
526
573
538
503
555
507
480
533
491
482
540
488
481
540
488
495
553
487
484
540
484
501
541
474
499
540
473
509
529
482
519
537
482
518
536
493
527
512
473
520
501
460
516
487
461
521
482
462
530
487
472
536
490
473
547
480
426
488
458
569
904
991
822
644
523
517
540
468
497
529
466
502
518
454
494
511
456
513
518
464
516
512
472
529
506
477
540
505
489
552
518
497
570
525
524
591
529
521
565
491
487
533
465
479
527
463
486
531
464
491
525
468
500
522
464
508
519
467
511
518
479
525
507
471
535
510
473
525
494
488
550
499
484
542
492
489
545
482
482
547
480
494
549
480
487
537
474
493
532
464
489
474
407
463
593
829
999
861
567
539
522
466
498
495
459
505
476
447
510
473
446
502
479
461
518
473
463
530
487
476
525
478
488
544
486
500
553
491
521
562
488
514
536
465
491
510
442
482
485
429
486
483
433
487
473
439
511
482
448
513
486
464
532
486
467
530
481
467
524
469
468
524
472
478
537
471
484
531
465
477
520
457
475
508
455
488
510
467
511
525
480
529
531
489
538
482
414
493
568
805
1001
843
579
562
497
483
524
462
474
512
458
486
518
457
484
513
454
481
508
452
498
510
457
502
501
465
516
514
472
531
527
496
551
524
494
549
512
484
542
495
468
526
475
468
521
464
461
521
467
477
528
469
486
527
470
502
527
465
495
522
466
507
515
454
513
527
478
520
527
480
520
506
466
520
490
461
516
469
459
528
477
466
531
473
473
541
478
429
467
455
546
831
981
811
639
524
520
534
474
497
527
476
506
520
456
498
511
450
499
501
451
513
500
456
510
489
471
535
504
491
551
513
493
555
513
510
563
502
492
538
479
482
528
477
490
520
455
493
521
456
488
510
453
488
510
458
496
511
460
517
510
464
517
495
461
517
497
467
539
511
479
551
507
482
541
496
478
522
470
474
538
475
478
528
481
494
531
468
482
500
405
460
559
704
988
927
631
560
544
467
511
511
457
506
494
452
513
497
455
519
481
458
524
486
475
527
483
476
538
491
491
542
496
517
556
504
533
573
512
535
559
482
501
526
465
494
520
471
515
523
467
516
517
477
527
528
492
536
511
480
536
506
476
541
507
492
551
508
493
538
489
492
538
495
502
539
476
487
530
466
493
542
473
504
534
468
503
533
477
514
535
466
456
467
464
653
946
970
781
589
508
533
500
473
521
480
467
516
468
470
521
468
469
522
467
480
534
465
481
539
484
495
540
485
513
551
499
538
566
517
556
570
504
539
536
473
514
504
468
519
496
468
518
483
466
521
480
468
527
483
476
535
485
485
539
482
490
536
478
492
538
482
504
547
492
514
547
493
525
543
477
506
529
472
515
525
477
531
523
478
535
517
484
540
509
444
471
467
525
833
999
907
689
541
510
545
486
478
524
465
475
525
459
476
513
453
478
506
437
481
505
455
501
521
463
512
525
485
537
536
499
553
532
504
560
523
485
528
486
463
506
455
448
511
464
450
510
461
454
502
459
459
508
463
465
509
468
488
517
458
495
521
462
498
510
458
500
517
469
521
502
478
544
518
468
521
480
459
524
484
461
526
478
471
525
477
479
547
500
487
481
430
475
682
937
967
756
525
500
509
435
462
485
435
482
499
443
482
486
443
488
486
449
502
498
452
504
491
470
529
501
485
538
510
502
553
513
510
569
504
496
546
474
475
519
453
475
519
453
473
507
444
479
503
453
491
512
456
492
497
451
496
503
476
527
506
473
531
510
486
546
517
498
544
511
489
550
501
500
548
487
488
537
476
490
537
477
499
543
473
500
539
458
439
495
491
692
983
903
698
596
512
529
524
471
515
494
465
518
495
469
512
478
462
513
475
468
525
482
474
538
479
483
549
496
504
562
502
518
576
515
534
571
501
526
543
488
508
526
475
509
505
467
523
508
467
529
520
484
526
513
481
533
507
489
545
508
498
557
504
495
550
503
494
544
496
510
551
504
516
551
495
517
542
476
512
544
484
517
529
481
512
522
479
528
527
470
459
462
456
630
898
976
807
588
514
559
507
476
529
473
460
531
475
466
526
466
470
521
460
482
528
464
481
522
467
502
534
472
516
543
494
540
554
515
559
559
506
540
524
479
524
496
463
533
498
476
541
501
492
538
484
483
540
484
482
539
478
476
538
476
485
534
471
492
519
463
498
522
459
497
524
470
521
534
474
525
527
473
517
506
468
519
498
462
531
495
461
526
486
466
527
482
464
490
414
438
569
767
997
936
626
526
547
470
472
503
444
477
504
448
470
497
457
483
491
449
489
496
458
507
501
467
521
511
473
530
515
497
558
534
513
569
533
523
567
511
492
539
486
479
534
483
480
522
471
488
525
463
489
531
464
491
520
459
497
506
454
511
516
464
517
506
459
512
505
465
523
495
462
527
495
485
547
500
489
544
501
489
537
478
484
545
477
481
527
470
482
527
470
500
532
464
488
466
431
514
752
987
949
695
515
529
503
456
504
480
433
489
474
444
502
468
440
501
462
448
502
457
455
511
466
469
518
464
495
543
483
508
559
506
533
577
516
532
549
487
512
527
461
506
508
453
503
496
446
500
483
445
502
487
463
518
478
454
527
492
470
518
479
470
531
481
480
539
473
469
519
466
479
526
464
502
536
468
499
519
456
495
499
445
483
490
445
492
491
443
491
483
449
493
473
439
449
413
420
592
822
936
791
554
479
512
449
440
493
424
428
474
422
430
468
415
434
474
412
433
464
408
437
462
413
449
469
426
473
472
433
492
487
449
496
480
450
487
440
404
450
408
370
412
379
364
415
358
352
409
339
354
416
352
348
400
338
353
398
330
352
394
338
373
403
349
384
401
345
396
409
358
425
409
363
418
401
360
414
388
350
402
388
364
419
377
361
424
392
383
433
379
374
377
322
374
555
764
855
677
449
446
451
370
402
425
358
401
423
368
405
421
375
413
417
375
422
417
393
451
424
400
457
419
410
482
447
443
504
464
464
537
483
474
527
464
467
505
445
455
491
432
454
503
441
463
496
437
466
492
446
489
504
459
511
511
467
516
520
479
515
491
466
523
489
465
524
474
463
534
496
481
546
490
494
545
472
477
533
473
483
537
479
496
536
485
512
543
487
521
537
434
478
523
613
956
1000
864
661
590
535
564
525
494
552
517
488
539
506
491
552
503
493
553
496
496
555
503
513
567
510
524
571
518
552
605
543
569
610
568
594
611
550
577
578
516
546
541
496
548
542
505
559
527
500
561
536
520
586
550
515
574
538
533
591
536
534
588
527
528
593
526
541
592
533
550
587
535
557
581
530
546
560
504
539
543
495
538
541
502
549
544
513
556
529
506
578
540
485
500
491
534
817
1001
950
729
546
544
566
491
496
539
482
503
526
479
523
535
480
521
535
483
535
534
485
542
531
487
556
538
512
573
550
541
592
557
549
605
564
537
581
518
503
557
499
501
546
483
499
541
478
500
538
485
519
561
499
524
546
492
524
536
485
522
512
466
515
506
464
526
503
482
539
509
486
545
496
490
544
491
479
529
473
479
537
474
479
542
479
482
534
476
501
536
477
469
466
443
533
767
980
933
701
541
552
522
472
520
505
462
522
509
474
529
505
471
531
493
482
553
507
490
558
512
504
557
507
508
563
512
532
585
525
542
590
538
551
567
501
519
534
483
519
518
476
526
519
471
520
514
481
536
518
487
540
519
496
551
510
489
554
513
504
563
507
497
555
513
513
578
526
521
572
506
529
564
496
514
543
481
511
526
473
513
524
468
503
519
480
525
493
418
500
568
745
1000
854
619
597
520
494
547
481
478
529
469
478
518
458
484
523
460
483
519
469
506
527
467
502
525
481
517
521
476
531
534
489
539
525
512
566
521
479
541
496
473
527
480
466
519
468
466
522
464
477
529
464
481
537
460
477
525
466
497
530
467
507
522
461
510
516
464
508
512
471
538
515
462
521
502
467
518
492
456
507
485
459
505
470
463
523
475
476
533
467
473
488
408
447
584
774
991
881
588
535
549
471
504
528
458
488
493
446
492
485
436
492
492
454
497
480
457
513
494
468
519
493
473
524
483
476
543
492
495
564
506
508
552
480
482
523
459
468
511
456
474
507
445
477
505
460
490
508
456
500
513
459
508
500
474
536
508
473
537
514
481
549
501
474
534
494
484
550
495
482
546
480
480
543
483
480
524
471
487
533
475
496
519
460
509
535
471
506
508
405
467
521
645
982
976
699
569
521
465
515
493
454
510
471
448
507
454
448
506
466
460
510
472
474
518
465
491
538
474
493
533
477
516
544
487
535
569
507
536
557
491
514
507
446
495
490
451
507
497
464
517
500
468
524
499
475
543
506
493
541
495
492
551
489
483
542
485
496
541
474
496
542
479
498
532
470
504
534
478
511
531
485
518
526
471
517
511
470
514
503
478
532
503
473
536
500
476
539
499
459
475
464
528
807
998
936
725
543
524
547
480
489
529
473
488
520
461
494
532
470
505
533
472
521
530
467
520
525
478
531
521
492
551
536
513
576
541
523
580
540
527
571
509
498
555
486
487
543
473
482
542
476
485
530
468
496
531
464
496
525
466
507
525
456
504
518
470
519
509
472
519
501
454
507
484
456
521
489
465
526
497
478
546
499
492
536
481
471
528
476
483
532
474
490
537
459
493
545
486
509
521
407
453
517
613
945
992
758
596
544
475
517
499
450
510
490
454
513
477
458
513
469
461
517
465
459
524
469
472
528
469
476
534
480
497
542
490
521
568
511
536
553
495
521
530
465
509
514
450
508
506
460
518
513
470
525
502
470
537
508
477
543
504
482
558
508
484
553
502
489
543
493
493
544
493
496
536
482
497
543
481
505
541
481
514
527
467
506
521
469
511
511
471
519
508
480
530
509
486
559
501
416
501
514
656
984
954
716
622
545
508
539
482
494
534
477
491
533
473
500
531
472
515
544
479
517
534
481
527
534
484
531
538
494
547
548
514
572
555
520
587
544
507
554
514
499
553
488
470
535
484
480
538
483
487
538
486
505
547
488
504
546
484
512
534
488
523
538
482
529
537
484
526
527
493
538
528
488
539
530
502
550
526
509
557
518
486
534
486
482
531
484
480
531
474
487
542
472
488
546
481
446
466
450
565
846
982
850
656
527
537
525
460
504
511
459
497
486
456
508
489
452
505
479
454
507
468
453
510
468
466
526
479
486
543
496
499
544
504
529
570
504
524
551
476
491
532
465
487
504
442
479
490
438
479
487
439
487
487
453
497
475
449
502
478
451
501
460
447
511
462
444
507
459
465
513
450
459
520
458
472
529
474
494
540
472
498
525
453
480
511
459
494
510
456
507
515
465
510
508
469
509
465
386
460
499
691
999
880
616
559
483
475
512
440
450
501
449
466
503
451
474
509
456
485
505
458
496
505
460
504
505
467
529
518
492
552
533
509
566
543
518
569
534
513
553
498
481
533
476
473
524
469
477
532
469
487
532
472
490
530
474
498
530
462
502
532
475
519
532
482
521
515
473
527
509
474
525
504
483
532
495
479
550
500
494
542
484
469
518
470
464
516
455
469
525
469
493
529
461
497
539
466
485
469
393
456
590
827
998
863
592
553
532
480
528
512
467
515
493
467
517
478
455
517
481
458
516
466
456
511
465
468
523
472
484
536
487
507
549
504
533
573
513
545
568
497
525
530
467
499
521
463
501
493
453
508
491
449
505
481
449
512
484
454
514
478
462
515
473
471
529
476
482
533
471
470
518
469
490
535
476
488
525
473
496
532
459
489
517
464
510
514
461
509
514
463
508
500
470
531
501
427
470
472
535
833
993
823
655
541
507
539
481
484
535
478
486
532
470
482
519
465
487
522
456
493
518
454
504
526
459
512
532
476
520
531
493
546
545
510
564
544
504
550
512
492
541
496
477
534
478
462
526
474
466
529
479
482
545
478
486
537
475
487
522
473
498
523
471
509
524
463
509
519
478
541
537
489
540
519
490
542
508
464
525
507
482
531
497
483
544
495
492
553
490
489
518
418
451
554
683
959
942
652
562
569
481
500
538
485
513
520
464
504
511
462
506
506
465
510
511
471
525
504
472
538
514
487
551
519
518
587
535
528
597
541
531
576
512
508
555
493
501
531
465
492
533
476
495
536
478
513
539
484
520
523
479
529
524
483
524
510
478
527
504
485
542
514
486
539
498
489
549
498
502
559
498
490
543
478
481
537
471
481
539
479
496
544
487
502
532
482
501
473
428
492
652
891
997
807
571
576
538
469
525
493
453
524
491
466
543
505
474
532
495
476
539
487
485
538
483
495
537
481
499
552
500
528
580
513
538
577
521
549
556
491
518
524
468
512
506
452
515
501
463
515
486
460
518
479
456
528
483
464
522
465
465
525
469
468
522
463
467
504
446
464
512
464
493
531
465
501
529
455
489
520
454
487
505
452
503
502
455
506
481
447
526
497
459
521
430
395
477
576
855
997
771
532
548
484
463
516
451
441
498
446
456
502
439
475
523
454
480
517
468
498
517
471
510
518
468
516
513
481
537
533
500
561
545
505
557
527
490
531
484
470
526
473
462
528
472
463
519
469
487
538
469
481
527
464
498
527
456
490
519
453
490
518
457
496
511
460
508
513
481
528
508
477
542
501
472
542
502
470
527
475
450
513
465
463
521
474
471
528
467
468
532
477
483
490
410
455
592
793
991
853
577
540
545
469
507
518
459
501
508
461
509
497
457
505
492
461
516
491
464
510
482
474
529
470
474
544
493
497
557
506
525
578
515
512
566
499
496
527
464
485
520
459
482
518
465
504
523
472
509
511
466
514
508
464
519
511
482
539
502
480
546
502
472
537
492
473
539
495
494
546
500
496
548
486
485
534
476
498
526
461
499
529
471
503
521
466
515
532
470
466
484
479
663
935
944
765
595
519
544
497
466
521
485
475
532
487
471
539
485
472
527
462
461
522
461
467
529
469
488
530
472
512
554
489
525
560
509
563
575
514
544
536
488
526
505
457
514
502
465
532
498
464
527
488
462
521
479
473
529
478
485
542
487
488
535
476
489
544
477
492
533
473
501
537
472
505
547
486
519
554
484
520
527
475
526
524
477
527
523
494
545
512
490
541
501
490
542
481
417
497
496
635
970
975
762
616
509
498
538
464
478
520
451
484
512
451
479
498
441
491
507
443
484
493
448
494
499
471
518
504
481
545
517
497
565
537
516
573
526
497
550
494
484
526
470
482
537
464
472
528
458
462
508
450
480
506
442
472
506
459
489
508
455
499
515
463
509
510
474
523
500
475
530
494
477
536
487
471
539
502
494
539
496
492
541
482
490
533
471
485
530
468
485
524
475
499
524
472
515
528
475
461
464
442
608
910
986
838
613
497
538
507
459
524
499
466
516
491
466
523
488
472
522
466
456
524
461
466
531
468
476
538
476
501
549
486
524
567
511
542
577
515
542
549
479
514
510
458
500
488
440
500
494
460
511
487
465
515
477
457
518
483
473
529
480
472
531
485
484
534
468
471
518
467
480
518
462
487
520
464
497
531
466
495
524
466
501
502
463
495
487
464
516
495
464
513
481
462
530
488
466
528
467
390
471
472
644
994
951
716
590
495
486
524
458
473
512
444
466
502
442
464
490
438
470
489
437
471
480
457
512
503
460
525
517
482
541
530
496
556
539
521
568
532
505
542
488
479
527
464
466
515
455
467
524
464
476
525
458
483
527
470
493
527
467
507
519
463
504
516
459
509
510
464
508
500
474
536
519
486
536
505
484
537
497
473
529
480
479
531
469
478
533
478
481
528
483
497
540
475
470
475
454
552
765
942
885
679
529
536
523
469
507
500
454
509
501
461
516
495
453
516
484
459
517
470
469
534
479
474
546
496
497
566
513
520
573
512
527
571
501
505
532
464
474
492
421
452
464
403
435
449
391
434
439
389
434
422
387
448
426
387
447
429
397
459
421
403
465
422
406
461
425
426
480
427
448
514
441
461
511
446
447
488
426
441
480
429
451
471
423
481
492
433
475
474
425
469
414
361
437
527
744
979
784
538
531
466
426
475
432
419
464
410
410
476
416
416
464
415
428
471
411
446
478
404
440
477
417
465
491
430
474
499
453
501
511
465
516
500
440
479
452
405
445
411
371
425
383
367
425
374
362
425
373
365
420
373
373
430
371
383
439
383
397
437
378
402
437
374
403
438
391
423
441
398
433
457
415
453
447
416
463
445
418
466
447
418
477
445
426
487
448
437
499
457
450
491
427
387
465
454
669
995
907
658
562
473
472
508
446
473
492
435
473
487
433
478
486
436
482
477
432
481
473
444
491
473
456
521
493
478
548
517
508
567
519
522
580
518
508
549
481
481
535
474
486
526
461
501
537
459
501
527
466
509
531
481
528
525
478
536
532
487
543
537
498
550
535
506
568
529
506
562
516
507
561
514
515
574
509
526
578
517
524
560
494
516
557
495
521
559
489
518
543
491
533
543
497
543
489
431
514
640
883
1001
849
605
593
530
506
560
500
492
551
502
509
557
504
513
554
490
504
550
490
521
553
485
528
551
507
565
576
540
588
588
548
594
597
556
611
586
537
589
554
525
580
538
510
556
507
496
556
501
500
556
509
520
568
502
520
573
515
542
576
509
540
568
505
529
550
500
539
551
510
550
540
508
571
565
528
585
550
510
571
533
498
552
512
494
544
502
499
551
501
498
559
503
499
534
422
458
534
623
929
991
738
598
588
506
529
545
469
511
530
472
521
525
471
522
517
478
532
522
488
546
522
497
564
529
512
575
539
533
597
559
557
612
565
564
613
553
537
575
516
519
547
486
506
522
458
489
521
467
492
503
453
507
510
468
522
518
480
545
522
475
534
503
476
539
501
481
549
493
483
556
521
497
546
493
497
545
482
492
527
462
493
530
458
488
525
463
497
524
470
511
531
426
462
504
546
835
997
833
655
579
516
532
498
474
522
485
466
523
487
468
528
478
474
535
471
478
537
471
485
542
481
495
544
490
523
559
499
532
564
513
550
567
502
528
514
467
514
493
448
502
481
449
513
487
463
520
488
468
528
490
478
530
481
479
532
472
479
523
464
483
537
480
498
535
469
499
549
482
508
518
480
508
517
455
494
499
440
505
503
457
509
499
476
527
488
466
528
485
453
458
416
432
615
854
975
818
560
507
533
464
467
519
459
470
517
445
460
507
440
466
497
455
486
499
449
494
502
453
500
504
478
530
518
490
556
539
499
558
527
504
562
502
471
527
459
448
505
447
443
504
453
450
502
452
457
502
452
473
506
455
488
512
448
483
511
456
491
509
455
505
502
454
511
491
456
522
495
464
531
489
466
527
476
445
512
476
464
522
466
461
516
462
464
522
470
472
491
393
436
513
659
979
971
676
543
530
457
489
490
442
484
477
427
472
459
414
477
462
423
490
478
447
504
469
451
516
482
479
530
478
483
546
493
513
563
494
512
557
485
499
520
445
473
497
433
459
482
435
479
482
433
490
501
453
489
485
459
513
484
460
