495
498
499
500
504
502
497
492
489
488
487
485
482
480
479
477
476
477
476
474
474
473
474
478
482
488
488
484
480
482
485
488
487
488
486
482
486
487
488
489
493
504
509
499
494
506
505
496
489
487
488
482
474
467
470
474
473
475
473
473
473
475
475
471
473
478
483
484
461
410
414
471
552
690
893
999
921
683
530
500
496
476
465
466
468
465
465
470
470
470
469
463
465
469
469
471
473
471
471
471
474
477
477
476
478
481
483
484
491
496
491
490
492
496
497
498
498
497
495
499
500
495
493
493
489
489
487
486
485
481
481
485
488
486
490
491
489
490
493
491
491
495
496
498
498
498
498
498
498
499
500
500
501
504
509
518
527
525
517
516
513
511
506
501
503
498
493
486
483
487
489
486
488
492
495
497
498
499
496
497
502
501
482
432
431
491
565
697
914
1001
960
730
548
511
515
503
497
491
488
485
484
481
481
483
485
484
482
484
488
486
483
486
487
486
489
494
496
500
500
498
502
509
508
511
512
512
513
519
520
516
517
521
520
516
513
513
513
513
514
512
512
508
505
504
506
506
506
504
506
507
509
510
508
509
514
517
517
516
519
522
523
523
525
522
520
522
528
529
532
544
549
541
536
536
530
524
520
519
517
516
510
505
509
509
507
504
505
510
510
508
510
510
510
510
511
509
484
435
454
514
604
789
1001
1003
985
738
520
496
523
525
506
490
487
489
490
487
485
485
487
492
496
495
493
491
488
492
494
490
490
495
494
495
498
500
501
502
504
505
510
516
519
522
527
527
526
526
523
515
515
515
511
508
506
501
502
502
498
496
496
496
498
504
506
506
507
504
505
511
511
507
509
511
508
510
511
510
511
513
512
515
519
530
542
540
533
531
528
521
515
511
510
504
500
494
489
494
497
496
494
493
495
494
495
501
504
507
510
505
494
452
421
459
525
649
884
1003
1002
901
613
484
501
522
511
486
481
490
489
482
480
479
478
476
481
483
479
480
484
483
483
479
484
486
486
491
496
495
495
497
499
502
507
507
504
506
511
509
511
515
512
508
505
503
499
496
495
496
494
495
491
488
489
490
490
488
487
492
493
493
495
496
497
495
494
497
498
499
503
505
503
505
508
509
508
519
532
528
515
515
520
516
504
500
501
494
490
487
483
487
492
491
490
489
488
489
492
492
492
495
494
495
485
436
410
452
521
660
910
1002
999
864
598
492
499
510
499
480
473
476
474
473
476
477
475
475
473
473
476
476
477
481
481
479
480
483
480
480
484
487
491
492
494
496
497
500
502
502
501
502
506
511
513
514
514
506
501
501
502
499
493
491
493
489
488
491
491
488
489
493
494
492
493
495
497
501
504
501
499
500
502
501
502
505
503
506
518
526
522
514
518
520
514
509
507
508
503
497
489
485
489
490
492
493
490
492
497
496
494
494
492
495
499
485
437
422
468
534
653
854
1001
961
740
564
523
517
502
491
487
485
483
482
480
481
481
476
475
478
480
485
486
484
488
489
485
486
488
489
490
493
496
498
495
497
498
502
504
504
505
507
511
510
510
509
507
506
511
507
501
498
497
498
498
495
492
492
493
492
493
495
499
501
503
501
499
502
504
504
499
502
509
508
506
505
506
511
514
522
526
519
520
527
523
518
513
509
506
501
497
493
494
498
497
496
498
500
499
498
497
498
499
502
503
497
463
425
458
517
605
764
977
997
881
655
542
526
520
502
493
491
490
487
483
485
488
492
494
490
487
490
488
487
492
492
492
494
497
498
497
497
497
501
503
505
508
511
513
516
519
517
517
515
511
509
514
512
508
509
508
506
509
508
503
500
500
502
504
503
505
503
503
506
508
509
508
508
511
513
508
508
513
515
513
513
518
521
520
531
545
544
538
539
539
529
519
517
521
514
508
504
499
503
505
502
500
501
501
499
499
503
505
505
511
513
501
452
431
477
545
678
914
1003
1000
816
567
498
514
518
506
491
486
489
489
488
489
487
488
487
489
486
489
492
491
491
491
489
491
493
493
496
499
500
500
503
510
512
514
516
514
516
518
519
519
519
517
516
511
508
503
501
499
494
495
498
502
503
498
496
497
497
497
498
500
497
498
498
500
502
502
503
502
503
504
504
511
515
522
534
535
526
521
523
518
513
506
504
501
494
490
484
483
489
487
485
491
494
494
498
497
492
494
499
498
491
458
413
437
490
591
802
1002
1002
934
651
486
487
515
505
481
473
476
477
472
472
472
471
473
473
472
474
474
473
473
474
474
479
482
483
487
489
487
490
493
494
497
500
500
502
508
509
508
507
505
504
504
501
498
498
501
496
493
490
491
490
488
487
489
489
488
489
488
489
490
491
491
496
501
501
499
496
501
502
500
501
505
507
509
521
530
524
514
516
516
510
502
497
497
493
491
492
490
488
486
488
491
494
491
488
493
493
490
492
496
495
483
436
412
451
513
650
903
1003
1000
832
570
485
501
512
497
478
474
478
477
475
473
473
473
473
471
470
472
478
479
479
481
480
479
483
483
482
486
488
492
496
496
497
499
502
504
505
507
510
513
515
512
507
504
501
498
495
493
492
488
489
489
487
490
490
488
486
487
489
494
498
500
498
496
494
495
500
501
500
501
500
502
505
502
501
506
506
507
521
529
521
517
527
522
511
506
508
502
496
493
488
487
492
495
491
488
487
489
492
491
489
496
503
505
501
486
445
431
473
538
657
853
1001
965
741
555
513
515
500
488
487
481
481
486
486
488
486
483
483
484
487
486
483
484
487
489
491
490
487
490
493
496
500
500
501
504
510
510
507
507
508
513
518
515
511
509
507
507
506
500
496
498
502
502
498
497
496
496
497
494
496
496
496
498
500
497
499
501
501
500
500
502
504
503
508
513
511
508
507
509
513
521
531
531
521
520
519
516
510
507
511
505
499
493
489
498
504
500
497
499
497
498
501
502
501
503
505
505
502
473
431
462
523
598
736
939
997
881
655
543
529
521
503
495
492
489
486
488
488
485
484
488
491
488
483
486
488
491
491
492
494
498
495
496
500
501
502
504
506
507
509
512
516
515
513
512
516
516
514
515
515
513
511
507
505
503
501
501
500
500
499
499
499
497
495
496
499
498
496
500
504
507
510
512
511
512
515
513
510
513
516
514
515
517
518
518
521
529
539
536
528
533
530
522
515
514
513
508
504
496
499
504
501
499
499
500
500
498
499
499
500
503
506
508
507
479
444
476
533
628
816
1001
1000
871
610
501
506
513
506
491
487
486
485
485
483
486
489
487
485
488
487
486
490
491
486
490
493
494
493
494
495
498
504
507
508
514
521
522
523
524
525
527
529
529
526
521
516
516
515
509
504
502
499
501
503
502
500
501
500
500
501
502
501
502
505
504
507
510
508
508
513
512
511
511
513
512
512
514
515
520
527
529
534
547
547
532
529
532
528
520
514
512
508
506
500
493
497
499
499
500
501
504
508
506
504
505
507
506
511
511
497
459
444
488
548
672
908
1002
1002
853
574
484
511
527
509
488
479
484
486
481
479
481
484
482
480
481
483
483
483
483
486
487
490
496
500
496
497
502
504
507
510
510
511
516
517
517
519
520
517
518
519
512
508
508
505
504
501
494
489
489
489
487
487
489
490
491
487
487
491
491
490
491
495
494
496
502
502
497
499
506
505
503
502
501
505
508
507
504
508
509
511
510
523
533
527
521
525
524
519
510
508
507
499
496
492
494
496
495
490
491
494
494
490
493
501
503
503
502
502
501
484
440
452
502
581
749
996
1002
984
744
522
484
507
510
488
479
485
486
483
478
475
476
478
478
478
476
478
478
477
479
480
482
485
483
483
489
493
497
498
499
504
508
510
509
514
519
515
517
520
516
513
511
508
504
502
500
497
495
492
490
489
485
483
484
485
485
487
489
488
485
491
495
491
487
493
492
491
495
500
501
501
498
499
503
501
498
501
504
501
503
507
507
518
528
519
511
521
517
507
506
505
505
499
491
485
488
494
492
493
496
493
494
495
493
494
497
498
500
501
497
466
438
475
530
613
769
984
997
877
637
522
520
517
500
490
487
483
482
481
482
483
484
483
487
490
487
485
489
489
488
489
492
495
493
493
496
497
499
500
503
508
513
518
521
521
520
521
521
519
518
519
514
507
508
505
501
499
497
497
497
495
494
494
499
501
499
500
497
496
499
502
501
502
501
503
506
508
508
510
511
511
510
513
514
517
519
517
515
519
525
536
536
527
527
529
523
516
514
512
508
501
495
491
497
505
505
502
504
506
501
504
506
504
505
507
507
511
498
451
450
509
575
685
868
1000
924
700
560
538
534
512
501
498
496
492
489
491
488
488
490
491
490
492
492
491
491
490
491
493
498
502
504
505
500
502
506
506
510
516
515
515
520
522
520
522
522
518
517
516
511
508
505
504
506
507
505
503
500
497
496
495
497
499
500
497
496
500
501
501
499
501
504
505
508
510
513
514
510
509
511
513
512
514
515
516
518
519
520
533
541
532
525
524
520
514
509
506
503
501
501
494
493
497
491
492
495
495
495
495
496
498
501
498
499
501
492
447
439
493
556
691
924
1002
997
820
564
484
503
517
501
484
481
480
481
482
478
479
482
481
477
478
477
479
483
486
485
485
489
491
491
491
492
495
498
498
500
504
507
510
512
515
519
522
524
523
520
516
513
510
504
502
501
497
493
490
489
490
489
489
489
487
491
495
496
496
495
495
494
498
501
496
497
502
500
502
504
502
502
502
499
499
501
504
508
512
516
520
530
530
518
518
519
513
507
499
498
496
493
486
478
483
486
484
484
490
494
496
497
490
489
495
496
495
497
473
431
453
505
587
770
1000
1002
953
674
491
488
520
518
493
479
476
480
481
474
476
480
479
477
478
480
480
479
480
479
480
482
482
483
486
486
490
495
498
500
503
509
509
512
517
517
515
515
520
521
517
514
509
509
505
500
499
499
497
494
495
491
491
493
492
493
494
494
495
498
498
497
498
498
498
499
505
506
507
506
505
504
506
509
508
506
506
507
511
521
533
530
520
520
521
515
506
500
500
499
495
488
487
494
497
494
490
493
496
493
495
498
495
496
497
495
492
467
427
454
511
605
795
1001
1002
929
650
491
488
509
503
485
475
474
477
476
474
472
472
474
473
473
475
476
477
480
484
483
482
481
481
483
486
487
489
492
495
498
502
505
507
507
508
510
511
512
510
512
513
510
504
505
502
497
494
494
491
489
488
489
488
488
486
488
491
489
490
494
496
500
502
502
500
501
504
504
501
502
499
501
505
504
502
503
507
523
525
515
509
520
518
510
504
502
498
495
490
485
493
496
491
490
494
496
493
490
493
495
499
502
503
498
468
429
458
522
612
763
970
999
901
662
542
528
522
502
491
488
487
489
486
484
489
492
493
493
489
490
492
496
495
497
495
496
498
496
499
500
504
510
512
511
516
522
527
527
527
526
524
526
532
533
531
531
531
528
527
523
519
518
520
518
518
520
520
522
523
519
519
525
526
525
526
527
528
531
535
534
531
532
534
537
538
539
541
545
543
541
547
557
564
560
557
561
555
550
544
539
537
530
526
520
518
527
530
528
530
532
534
530
530
532
532
535
540
537
506
462
484
548
628
769
979
1001
958
734
576
555
555
538
527
522
520
519
517
513
514
516
516
515
513
512
514
518
517
518
522
525
522
521
521
522
528
529
528
532
534
536
539
539
536
537
538
539
540
540
537
537
541
537
533
533
531
527
523
520
520
520
520
519
518
515
515
516
517
517
517
522
523
523
525
526
523
523
527
525
524
527
527
529
533
544
551
543
536
536
532
526
517
518
520
512
505
499
497
500
500
498
499
498
497
497
498
496
494
497
499
495
473
424
433
494
578
743
994
1002
996
797
540
477
500
510
493
475
473
475
471
468
471
473
474
476
475
474
472
471
474
476
475
475
476
476
476
479
480
478
479
482
483
486
490
494
497
500
501
496
497
499
496
494
494
492
484
484
481
478
477
474
470
471
473
468
472
478
476
477
478
478
479
479
478
481
482
481
480
481
482
482
483
486
486
486
495
512
513
501
496
499
495
488
477
476
479
473
468
466
466
467
468
467
465
466
466
465
471
476
474
476
475
469
438
393
415
472
577
779
1001
1001
888
597
455
463
482
473
451
447
452
450
446
445
444
444
447
446
443
444
446
445
445
445
447
449
450
453
455
458
463
467
470
471
469
472
480
481
481
486
487
486
487
486
486
485
480
475
471
467
465
467
469
465
462
463
462
462
460
464
469
469
465
465
467
469
469
469
469
471
473
474
478
482
484
482
479
490
509
506
494
495
498
493
487
477
475
473
466
459
454
461
466
467
466
464
464
466
464
464
464
465
469
470
460
422
386
421
480
593
807
1001
995
829
577
480
486
486
472
462
458
453
456
456
451
456
457
455
454
455
457
457
458
458
462
465
462
463
466
466
468
471
475
476
478
477
479
484
487
484
482
486
492
492
486
483
482
482
483
484
486
486
476
473
477
476
474
476
474
474
477
480
477
476
480
480
480
481
484
484
484
486
490
496
495
493
495
496
510
519
510
502
511
513
504
497
495
493
488
485
479
481
487
483
480
486
493
488
489
496
497
493
493
494
491
465
419
435
496
580
720
924
998
900
663
535
518
513
495
487
491
488
482
481
482
481
484
483
482
482
482
483
483
485
488
488
489
490
490
494
495
496
503
506
503
505
507
509
506
506
508
508
509
512
508
506
505
507
506
503
504
505
503
498
496
499
500
497
497
496
496
496
499
499
497
496
497
499
499
501
503
505
506
506
508
510
510
510
520
530
527
519
522
521
514
505
501
503
504
500
495
492
493
498
497
497
499
500
500
502
505
504
503
505
507
490
441
434
486
553
674
887
1001
986
786
579
524
529
519
507
503
496
492
491
489
489
490
490
487
489
491
491
496
496
492
496
498
496
500
502
501
501
504
506
507
509
511
513
512
511
515
520
521
522
527
526
520
518
517
515
510
511
510
507
507
507
505
506
505
501
499
501
501
505
507
508
509
510
509
509
511
515
511
510
516
518
521
525
537
543
533
524
529
527
519
512
513
515
504
497
495
494
497
498
498
497
496
496
498
500
498
499
497
498
499
475
426
441
500
596
785
1001
1002
950
678
500
490
515
511
488
477
478
479
477
474
477
479
482
485
482
479
478
479
481
479
479
482
485
485
484
487
490
493
495
493
494
500
508
511
510
512
514
511
512
512
510
507
502
499
497
494
489
488
489
485
485
488
486
488
495
497
494
492
494
493
494
497
500
500
498
497
498
500
501
504
510
514
525
537
529
516
515
518
515
503
496
498
496
491
484
480
485
485
481
481
484
487
486
485
483
488
493
494
493
478
427
410
455
522
667
924
1003
1000
804
547
473
495
506
486
469
470
474
474
470
470
470
472
472
471
472
473
473
473
474
475
477
477
475
478
482
482
485
489
491
497
500
501
504
505
504
505
508
511
506
505
502
497
496
495
491
490
489
486
488
491
491
488
485
486
487
487
487
491
493
495
496
496
496
496
497
498
495
496
501
504
504
506
510
511
518
534
531
516
517
520
513
510
503
500
497
494
489
485
490
491
493
498
498
495
493
494
496
497
496
498
498
496
468
422
443
493
585
772
1001
1002
934
664
506
501
513
500
483
477
478
480
480
477
475
474
474
476
475
474
476
477
475
477
479
481
483
486
489
490
490
492
492
494
496
499
502
502
499
502
508
509
506
503
508
509
505
502
500
495
491
487
484
484
483
482
484
484
483
483
483
481
483
486
486
488
492
494
494
494
493
496
496
494
494
498
499
500
503
503
509
519
515
502
508
510
501
498
500
499
494
488
481
481
485
486
485
486
486
487
486
489
491
487
488
489
491
485
448
419
461
526
624
792
991
989
813
601
521
515
507
490
484
481
479
476
479
484
484
482
480
480
483
482
478
481
483
482
484
484
483
484
491
495
492
493
496
497
499
504
505
507
511
508
506
510
512
509
506
507
504
499
500
498
498
497
493
495
496
493
496
501
501
495
496
497
496
497
500
498
499
501
501
503
503
506
509
507
506
505
504
507
507
507
510
522
535
534
524
523
525
518
511
507
506
499
496
494
493
497
497
494
493
493
495
496
498
501
504
504
505
502
493
456
434
479
541
641
820
999
992
831
612
524
522
514
502
497
493
490
488
484
487
488
485
486
484
485
490
490
487
487
486
487
490
489
488
490
496
501
505
505
506
509
512
507
507
508
509
511
511
512
511
512
507
501
503
501
497
499
500
500
496
496
497
496
492
491
496
497
497
496
496
499
499
500
505
506
504
504
507
506
507
508
507
508
506
503
505
508
507
507
513
529
531
521
520
523
517
510
506
502
498
491
486
485
486
489
489
486
487
492
493
494
493
491
493
496
499
503
490
444
445
499
567
706
937
1001
973
737
533
498
509
501
490
480
478
478
474
474
475
474
471
475
479
481
480
476
476
479
481
479
484
486
486
488
491
491
491
492
496
501
505
508
510
514
518
519
521
519
514
512
509
504
500
500
496
491
492
491
488
488
491
490
488
489
491
493
495
493
494
499
499
498
500
501
501
504
505
506
507
503
503
506
506
507
507
510
512
513
514
513
525
538
531
522
526
523
516
509
507
506
502
495
484
487
498
501
496
494
494
495
499
502
499
499
502
504
504
502
475
434
464
516
605
790
1001
1001
913
640
500
506
520
509
491
485
485
484
481
481
480
477
480
482
482
483
482
484
486
487
489
491
495
498
496
495
501
505
505
507
511
514
514
515
520
520
523
528
525
523
522
516
513
509
504
503
500
494
491
492
489
490
489
491
492
492
492
492
495
495
495
499
499
500
502
503
503
502
505
509
505
502
508
510
507
506
506
502
504
509
512
519
535
533
519
516
522
517
511
505
505
504
499
495
492
490
494
493
491
491
489
490
494
497
499
500
500
502
502
484
442
446
496
562
690
900
1001
954
714
537
508
511
503
497
491
490
487
484
483
485
484
485
487
483
481
484
485
484
481
482
484
486
487
489
495
499
501
502
503
508
511
508
508
508
508
510
516
519
517
513
512
510
507
505
501
498
491
489
488
487
491
490
485
488
491
488
489
489
488
491
494
494
495
498
499
500
501
501
500
502
509
505
501
505
506
507
509
510
512
521
531
526
516
521
520
509
504
506
509
499
490
488
489
491
491
492
491
493
494
492
493
493
496
497
495
496
492
458
436
478
539
634
788
975
982
798
597
530
527
508
489
491
494
490
483
481
481
482
482
482
484
483
484
487
489
487
485
486
489
491
492
494
494
495
496
498
502
503
507
511
511
510
513
514
513
511
512
512
506
502
504
503
500
497
495
496
498
494
492
493
495
496
497
493
492
498
499
497
498
497
497
503
506
505
505
504
502
504
506
507
506
507
511
511
508
508
512
511
519
532
532
524
527
524
517
512
506
503
499
494
489
487
494
494
493
493
495
494
494
494
494
496
496
499
502
494
459
435
475
533
633
828
1001
1000
856
594
492
503
513
505
488
480
479
481
480
478
480
481
481
480
480
482
482
479
482
485
485
484
485
488
489
491
491
492
494
498
502
503
510
512
512
512
514
515
520
521
516
511
508
506
504
498
495
494
495
496
493
490
488
487
490
493
492
492
492
491
497
499
495
499
504
502
497
498
503
503
501
503
505
506
507
503
502
503
500
506
513
511
522
531
521
517
521
517
511
500
497
497
495
489
484
486
492
491
489
489
489
488
491
490
492
494
499
499
499
488
441
436
489
552
685
924
1002
996
813
562
488
505
512
499
487
482
478
477
478
478
477
477
478
477
476
477
478
478
478
480
483
483
481
485
492
491
494
497
497
500
506
509
509
511
516
516
514
517
520
518
517
516
509
505
500
498
495
493
490
491
489
487
489
488
489
491
492
491
493
494
493
497
499
498
497
498
497
497
502
505
501
500
505
505
501
501
504
503
507
510
513
526
528
516
516
521
515
509
507
502
498
495
488
484
490
491
488
491
492
493
492
496
496
497
498
496
498
497
470
428
450
511
592
744
969
1000
903
655
520
508
508
497
490
486
480
476
474
474
478
480
483
479
479
482
479
477
479
485
485
484
481
486
493
493
492
495
494
496
500
505
505
508
514
513
511
513
513
512
512
510
509
507
503
497
496
501
498
492
491
495
496
493
492
491
490
492
494
498
496
496
499
499
497
500
503
503
502
504
501
499
503
505
507
508
505
507
511
522
526
521
519
523
520
512
504
503
500
492
487
487
492
494
489
489
489
493
496
495
496
497
496
496
500
500
479
437
442
494
562
680
863
998
933
713
564
535
524
501
490
490
487
484
479
478
481
482
481
480
480
480
480
481
480
481
484
483
485
488
486
488
492
496
495
495
499
499
498
501
505
504
504
507
505
506
508
505
502
503
503
502
501
498
498
497
493
493
496
496
494
495
495
495
495
499
501
499
498
500
502
504
502
506
509
508
506
508
508
507
509
510
509
510
511
516
528
535
528
524
530
525
514
510
509
502
496
495
489
490
493
493
494
494
493
497
500
498
496
498
500
502
497
468
434
465
520
613
797
1000
1000
878
614
501
507
514
501
484
483
484
481
480
482
480
483
483
480
477
481
485
483
480
480
484
487
487
488
487
491
495
495
494
493
499
507
507
507
509
511
511
512
512
513
512
508
505
505
503
498
498
496
493
490
490
491
495
496
494
493
491
492
495
498
501
500
502
506
504
499
502
504
503
503
504
504
504
506
508
510
508
509
526
534
523
520
525
515
509
506
505
501
497
493
483
481
492
495
494
492
491
491
493
496
496
496
497
499
498
481
432
436
492
563
720
974
1002
996
803
551
488
508
511
493
481
478
478
478
476
475
477
477
473
475
478
478
479
480
481
482
481
483
483
485
488
488
490
492
493
495
497
499
502
504
503
505
508
507
510
511
510
508
505
505
503
499
497
493
494
490
488
486
488
487
485
487
491
492
491
492
493
495
497
497
498
500
500
500
501
499
498
499
501
503
506
508
511
525
529
517
516
520
511
508
503
500
496
492
487
482
485
487
485
488
494
493
488
488
489
490
491
492
492
492
469
418
431
486
571
748
996
1002
976
728
520
487
504
504
490
478
475
476
472
472
474
474
476
474
474
473
471
474
478
477
477
480
480
479
481
485
487
488
490
490
490
496
501
501
501
504
506
507
505
510
512
509
504
503
506
501
497
495
492
494
494
488
485
490
493
491
492
492
493
495
494
492
497
500
499
500
502
502
504
504
501
500
503
502
502
511
524
527
515
512
520
516
511
504
500
501
493
486
486
485
488
490
489
485
486
491
494
497
498
495
497
495
492
469
425
437
494
573
715
922
999
925
694
546
522
516
501
493
489
486
483
483
481
478
479
483
483
482
479
479
483
482
482
484
486
486
486
490
494
493
493
493
498
501
499
502
502
502
505
506
504
506
508
510
505
503
505
503
502
504
504
498
497
496
498
500
498
496
500
501
495
495
502
502
500
501
496
498
507
510
507
502
502
507
511
510
509
510
518
529
529
523
521
522
515
509
506
507
502
493
492
489
493
497
495
493
495
497
494
493
493
495
501
504
501
487
446
426
468
532
637
814
997
982
799
602
534
527
512
493
490
490
490
487
483
482
485
484
483
483
482
484
489
486
486
486
482
486
491
493
490
489
494
497
498
500
499
500
505
506
504
507
508
509
511
509
507
507
507
503
503
503
503
501
498
500
500
501
498
498
499
500
499
500
503
505
507
508
504
506
509
510
511
514
510
509
513
517
516
518
528
539
536
527
528
532
528
515
506
510
508
502
496
491
494
496
498
497
495
497
498
501
501
497
497
501
502
491
446
429
476
543
675
897
1002
998
842
587
502
511
517
510
493
485
486
487
487
486
486
487
486
484
489
490
490
488
487
487
487
488
492
494
489
492
497
499
502
504
505
507
510
507
508
512
510
508
512
516
514
514
510
506
507
508
501
496
497
495
497
497
494
495
500
499
500
500
501
504
505
506
504
503
505
507
509
509
506
508
513
515
514
517
529
538
529
522
526
522
517
509
505
504
498
495
491
486
486
491
493
494
494
494
494
496
495
496
497
497
494
480
434
424
474
548
702
955
1003
997
819
559
483
501
513
498
481
478
479
476
474
475
475
475
477
475
472
475
477
475
477
481
480
479
482
483
480
485
490
487
490
494
496
495
496
500
505
505
503
506
506
504
505
507
505
502
500
498
494
491
490
489
486
487
485
488
489
488
488
489
490
492
494
496
497
496
496
497
500
499
493
496
505
507
505
510
522
527
516
509
513
512
507
497
492
492
488
485
480
479
486
486
483
485
491
488
485
492
494
488
488
492
490
465
416
425
478
565
745
997
1002
975
727
520
489
506
501
484
473
473
474
471
470
469
470
474
477
473
472
473
472
472
473
472
474
481
483
479
478
481
483
485
488
490
492
493
494
495
497
501
502
502
500
498
497
499
497
493
489
487
487
485
485
483
481
485
484
482
482
482
487
489
488
488
488
492
495
493
492
493
494
496
495
494
498
500
499
505
516
517
508
509
514
507
497
491
492
490
488
485
480
481
486
483
479
484
487
483
481
486
488
486
492
497
483
437
410
452
517
626
811
999
988
812
597
519
513
503
488
483
479
478
477
474
472
476
479
479
482
480
479
480
481
480
481
481
483
485
488
486
490
494
493
495
498
497
501
502
502
503
504
503
501
504
510
506
504
503
502
503
505
502
500
498
499
499
498
499
499
496
495
499
500
499
497
499
501
499
502
505
503
502
506
506
502
503
507
509
512
520
527
528
523
524
524
517
511
507
507
503
496
491
494
498
496
495
496
497
501
501
501
502
503
501
501
502
480
434
438
492
565
695
892
999
940
726
570
534
527
508
497
498
493
488
489
486
485
489
490
488
487
487
486
489
493
494
492
492
492
495
499
497
500
503
503
506
509
510
511
510
509
509
511
515
516
517
515
514
513
513
511
509
512
508
506
505
506
507
508
506
505
505
505
505
508
509
508
510
512
513
512
515
518
516
515
516
520
522
522
523
524
530
542
541
534
533
539
531
522
517
516
512
504
502
497
498
502
503
503
505
504
505
504
504
504
504
506
507
502
466
431
470
527
627
830
1002
1001
885
621
505
509
518
508
493
487
488
487
483
481
482
483
485
484
481
482
483
483
482
484
487
488
486
486
488
491
490
493
494
498
499
499
503
505
506
507
507
508
511
510
511
508
507
504
500
497
496
495
494
488
486
494
495
489
487
488
491
493
492
492
496
498
497
497
500
501
499
500
501
503
499
499
505
509
509
512
526
524
511
509
514
511
508
500
494
490
490
485
480
484
488
487
486
487
486
487
489
490
489
494
496
495
492
458
414
449
511
619
830
1002
1001
873
599
482
494
511
499
480
475
474
473
473
472
473
474
475
472
474
477
477
474
473
477
480
480
480
481
483
484
483
486
489
492
497
502
501
502
503
503
506
509
508
510
510
505
501
501
496
493
493
492
492
492
489
48
