56
672
623
493
720
593
470
769
594
500
767
608
526
820
589
552
838
596
600
819
544
548
739
496
513
699
485
543
684
454
579
663
421
601
646
415
647
661
418
647
609
461
642
576
424
681
581
395
661
557
408
689
501
444
710
463
441
737
527
426
653
451
468
667
376
515
648
366
439
632
372
436
609
388
463
556
363
472
483
525
883
989
694
548
445
304
531
462
349
541
404
290
485
426
361
562
362
297
522
388
339
492
356
406
528
343
379
557
367
374
496
350
416
540
303
395
511
290
367
378
250
333
336
212
329
327
195
359
278
159
358
280
150
340
275
134
361
244
177
367
211
161
391
262
176
350
193
233
404
203
248
419
290
325
481
346
366
462
322
448
493
310
510
487
358
535
545
416
532
626
526
661
618
534
717
730
741
1003
1004
1004
928
589
764
902
679
831
839
712
939
898
819
981
901
847
996
911
849
996
895
845
1000
953
968
1001
999
1002
1003
1002
1004
1003
1003
1003
1001
1002
955
917
970
848
874
942
794
837
896
760
826
844
721
807
806
689
784
762
644
763
731
616
732
668
604
716
630
585
699
579
558
668
540
515
647
526
488
606
488
474
542
418
412
484
378
401
454
342
412
442
298
388
429
307
377
379
263
369
403
442
818
837
453
345
278
218
334
284
211
339
261
206
332
232
201
346
238
208
355
236
217
349
240
263
366
242
291
387
261
330
400
262
356
405
267
377
390
256
330
370
229
318
320
226
331
298
215
376
315
235
370
302
250
387
293
278
420
288
300
456
323
311
449
323
342
450
318
351
470
336
377
475
342
411
485
373
447
503
387
445
490
382
470
468
368
487
474
383
510
461
403
527
461
408
547
458
394
544
488
623
981
938
685
538
395
423
562
447
449
568
422
465
564
455
510
575
427
522
577
457
534
592
465
573
603
491
589
595
503
612
616
536
676
615
545
697
585
521
645
531
482
612
494
460
614
500
461
608
485
479
638
498
515
622
487
532
625
482
558
592
501
586
614
471
600
610
480
607
571
502
615
576
512
633
570
519
658
590
537
683
585
510
660
553
510
633
532
530
654
528
535
655
523
529
653
523
547
623
473
593
782
884
1002
915
523
541
569
476
567
559
489
574
556
506
619
535
475
621
532
502
642
518
490
656
525
537
664
534
550
682
539
561
704
582
598
674
571
610
637
498
583
596
471
569
560
443
563
545
445
569
539
459
563
536
485
620
520
473
601
520
481
610
515
463
587
498
475
594
492
488
590
481
491
570
499
532
580
461
551
601
453
531
562
438
499
530
449
527
533
420
544
509
419
564
501
430
541
455
441
648
778
964
975
565
411
557
420
449
539
434
456
550
422
450
541
438
457
544
428
483
537
445
504
547
434
517
567
448
546
583
477
574
577
493
601
571
493
584
511
442
558
492
415
537
443
410
540
434
434
558
433
435
536
442
454
569
442
452
556
436
477
539
421
531
563
421
502
557
438
525
545
435
538
539
447
567
540
461
547
511
461
541
477
428
564
470
424
558
471
432
550
468
446
564
450
430
590
557
769
1001
837
544
471
418
509
500
430
516
500
418
512
497
429
530
490
444
554
497
448
559
495
446
565
499
449
615
518
491
620
506
519
636
520
525
603
485
495
565
437
456
530
406
457
510
387
464
507
402
478
491
398
478
476
389
517
483
388
505
472
395
528
466
407
505
446
413
535
456
419
533
450
437
565
437
442
565
446
443
532
395
440
515
373
425
506
367
435
486
360
460
499
379
475
476
344
505
607
728
1001
784
407
466
432
404
498
423
395
510
420
411
523
433
435
528
421
439
526
396
471
545
417
493
550
430
522
583
471
555
583
474
560
579
495
594
563
447
550
501
414
535
467
407
539
447
403
535
455
435
566
448
446
559
461
471
558
451
466
552
441
490
554
443
502
549
438
502
536
423
504
536
430
530
530
429
558
543
437
570
535
448
540
501
421
563
488
426
564
472
448
570
470
454
584
462
471
556
419
481
657
709
980
995
640
439
546
446
503
552
442
512
544
449
534
543
451
535
549
451
554
539
457
560
541
482
586
529
499
624
549
510
639
538
528
655
545
525
645
501
480
575
473
465
557
425
460
558
427
470
547
424
503
552
419
494
528
452
525
526
447
531
524
427
546
524
442
554
511
444
541
511
448
551
477
435
547
500
464
559
490
479
581
483
486
583
449
458
554
438
475
550
450
489
529
432
512
552
432
506
532
415
492
545
524
815
998
846
605
457
431
553
467
414
536
503
437
549
469
447
559
481
479
552
461
481
585
472
486
569
493
508
615
480
532
633
507
563
636
512
579
628
493
558
566
465
528
528
439
513
501
431
530
475
431
544
488
429
547
473
436
568
488
443
556
470
459
566
462
473
564
440
482
563
437
479
565
447
493
558
439
482
569
448
502
572
455
522
525
435
522
498
440
535
498
435
534
488
430
562
494
440
554
471
404
569
565
690
1002
911
576
496
429
458
519
433
495
529
424
484
526
445
509
521
433
516
517
434
536
519
436
539
503
453
579
525
472
597
539
494
606
543
506
608
507
479
576
446
442
542
413
436
536
427
447
514
415
477
526
408
482
528
432
501
513
420
531
521
434
529
505
426
536
493
426
547
483
426
540
479
428
555
482
455
557
481
460
566
485
478
565
433
453
567
428
442
540
445
461
536
437
476
551
423
489
515
402
454
537
505
768
998
842
634
464
402
527
463
400
518
484
409
522
460
432
540
457
434
554
455
448
557
453
471
587
466
479
588
490
520
606
509
554
619
507
577
616
496
547
567
444
514
523
407
496
519
424
504
502
429
514
479
427
534
474
428
539
482
428
549
459
455
554
458
453
543
455
463
553
449
459
548
453
473
539
450
491
544
433
521
577
428
527
586
463
518
537
438
526
511
429
532
496
443
549
482
444
557
485
447
557
446
424
609
623
832
1002
747
460
514
465
473
538
446
495
542
444
511
522
438
531
543
437
522
536
455
555
526
454
582
542
488
593
532
506
645
566
522
639
558
531
641
534
522
595
458
477
557
450
482
544
429
479
536
418
482
536
427
502
538
421
494
523
439
530
526
429
527
499
443
535
505
431
527
476
437
549
465
416
554
474
441
545
446
466
556
464
466
556
485
473
538
451
467
531
424
469
534
420
486
535
410
496
529
418
488
538
428
475
523
532
831
998
842
644
458
405
541
492
425
534
480
435
519
504
464
552
467
456
558
459
480
585
461
483
585
484
514
592
465
562
631
520
585
622
516
597
618
506
559
559
472
546
521
425
519
501
431
539
496
420
549
475
436
562
468
437
561
473
430
562
463
453
560
452
461
551
436
475
543
436
472
552
438
480
532
428
492
539
427
523
537
438
516
519
477
551
500
437
537
489
421
529
472
448
548
468
434
557
460
430
552
468
433
517
492
595
895
976
800
603
405
475
541
428
466
525
437
487
534
426
506
541
428
519
536
440
533
545
441
550
527
456
587
533
475
597
538
493
631
565
511
636
549
505
578
501
481
553
446
444
524
434
458
547
436
467
550
421
482
546
439
494
544
428
514
540
431
532
530
434
532
527
431
528
515
441
536
489
447
556
490
449
561
483
458
562
478
505
589
467
466
572
449
478
559
460
481
557
463
497
559
456
501
550
478
508
496
454
621
773
916
996
720
422
532
505
437
530
507
451
547
502
460
584
506
477
571
524
493
593
497
501
597
509
520
616
513
550
649
543
586
671
553
589
659
562
606
627
506
552
569
472
551
545
453
544
525
439
559
532
446
550
515
455
566
502
463
574
491
461
576
487
469
576
472
480
568
469
488
557
464
494
561
462
497
579
455
515
578
460
520
576
472
532
552
457
516
513
438
521
508
432
551
501
442
549
488
449
552
476
413
526
533
611
932
970
763
583
426
472
561
437
469
564
432
486
560
442
495
543
431
510
555
444
506
547
450
528
524
460
539
546
471
565
556
494
595
566
506
606
556
486
571
488
458
528
455
437
533
428
427
532
421
419
514
410
440
532
413
448
509
415
467
528
419
487
526
420
487
525
435
497
487
437
521
483
414
517
487
414
522
480
435
544
475
441
557
484
453
571
466
448
555
451
435
557
443
458
547
421
469
564
441
477
559
439
482
521
451
583
783
924
974
700
420
509
508
435
533
501
441
555
506
463
560
502
459
561
499
479
578
490
486
597
490
490
615
514
514
616
531
563
649
527
574
667
541
574
620
490
536
560
445
516
521
425
519
517
424
519
513
429
538
502
431
541
492
432
557
491
448
560
487
443
562
475
472
576
460
453
570
463
469
562
460
478
550
446
484
544
443
498
550
467
513
544
477
528
532
452
530
496
434
543
510
437
537
499
460
548
487
461
559
485
455
536
525
583
900
997
849
628
431
496
580
463
488
584
471
502
594
467
519
598
478
511
588
489
547
561
470
564
557
489
568
572
511
594
587
525
620
589
538
632
575
523
608
517
485
576
475
463
551
439
461
550
451
455
545
443
473
542
445
482
549
440
486
535
426
500
532
426
507
516
444
506
519
437
518
499
430
526
485
439
556
507
456
548
498
478
561
468
466
549
439
447
554
445
441
546
450
460
541
446
480
557
430
446
553
527
743
999
907
653
509
434
518
503
431
514
510
443
532
486
451
557
497
448
570
495
465
584
498
482
584
505
511
611
507
529
648
525
559
641
546
564
627
512
550
595
471
523
530
432
517
513
428
508
504
422
523
508
408
530
507
437
544
493
438
542
487
454
543
479
463
559
476
456
556
458
470
549
439
466
557
433
461
564
450
482
560
436
502
573
442
484
536
413
485
501
425
491
502
437
509
496
422
522
494
437
536
443
429
592
676
879
997
724
422
520
465
433
535
447
435
541
442
450
555
435
466
547
446
484
547
435
503
539
451
502
560
472
532
567
497
575
574
508
603
577
521
596
542
484
535
496
443
522
450
420
512
444
437
512
427
441
531
421
431
549
436
470
552
455
490
549
440
500
545
453
509
539
452
523
521
434
521
521
425
521
518
428
541
501
438
554
490
447
572
510
459
543
476
443
545
463
448
561
467
458
562
454
481
558
460
491
551
424
491
610
655
967
996
705
494
512
451
522
518
442
539
518
435
545
515
460
547
515
470
558
510
479
562
514
497
572
507
522
614
521
533
645
527
561
651
545
573
628
503
546
577
451
502
529
442
501
510
418
512
527
412
503
512
425
517
519
425
522
494
439
536
488
435
543
488
447
547
469
443
552
454
449
562
451
466
537
456
480
560
451
504
565
451
516
583
458
511
546
437
512
519
434
506
517
446
524
523
437
528
508
449
534
492
422
558
556
659
1001
931
624
501
437
477
538
446
466
531
428
482
548
437
491
536
437
498
541
438
522
531
461
532
536
480
571
543
497
596
563
521
626
578
533
633
566
510
600
501
479
555
454
460
543
440
457
545
425
467
539
438
481
521
435
498
530
423
491
530
434
515
518
427
527
513
440
525
495
435
539
501
448
533
487
440
556
473
441
549
469
461
564
488
469
578
488
476
547
459
474
538
435
470
534
434
489
538
445
507
542
448
519
530
427
488
563
552
834
999
840
601
462
440
529
480
440
529
482
442
541
473
451
545
465
458
554
483
481
550
462
486
558
472
512
583
487
526
604
507
566
611
519
576
594
492
549
543
454
523
502
410
505
480
413
493
476
427
495
462
442
522
452
446
533
459
439
537
461
461
554
448
463
554
459
470
558
444
475
564
451
479
552
449
497
526
449
519
550
458
517
559
457
518
516
441
521
471
438
546
473
438
523
476
442
545
457
450
539
451
419
544
520
668
990
952
679
536
422
465
539
421
453
538
436
475
515
433
497
520
447
515
526
444
524
517
453
539
524
460
569
536
491
601
550
521
622
562
543
633
543
514
593
487
473
551
441
457
537
420
457
532
409
454
534
430
462
516
419
481
532
430
491
523
447
514
518
449
521
523
444
521
505
453
540
490
449
543
484
453
542
466
456
549
470
470
562
479
493
581
470
482
569
450
479
545
446
490
544
441
497
549
454
508
539
458
519
489
451
593
705
886
1000
779
436
506
495
445
543
482
455
546
482
458
552
485
470
549
471
478
568
467
499
560
472
512
573
477
554
599
491
568
618
519
585
614
534
578
585
494
546
537
448
513
496
444
514
483
432
525
489
455
528
480
474
549
469
461
554
467
461
548
456
474
545
451
486
537
460
485
543
456
490
546
443
502
528
451
511
533
442
520
524
453
562
528
444
573
556
464
537
518
463
539
491
468
567
464
459
583
469
483
580
485
486
570
458
461
598
585
844
1002
835
536
508
477
556
553
479
568
555
479
584
557
491
612
568
521
608
562
532
607
555
547
646
552
549
656
568
574
673
581
592
675
587
616
678
549
566
612
501
535
568
438
518
545
440
521
538
437
508
516
445
515
515
434
524
497
451
534
482
452
530
481
464
549
466
471
541
455
469
554
439
460
546
432
464
538
436
479
528
440
491
532
446
528
547
433
500
519
410
504
502
423
506
502
424
496
477
428
511
462
444
500
425
456
630
753
961
955
557
407
524
451
427
529
438
432
528
439
463
531
423
475
531
427
478
526
427
485
511
441
500
519
459
530
535
467
570
557
505
575
548
495
579
507
455
527
447
414
495
397
414
503
398
405
494
402
429
494
412
440
494
397
458
507
402
464
511
409
463
497
419
480
506
419
486
507
426
506
497
437
523
507
470
540
505
489
550
483
477
555
484
482
552
487
502
556
490
501
573
487
510
569
474
508
522
490
625
850
993
943
649
419
533
541
443
551
537
464
551
530
478
554
526
473
573
521
476
577
516
490
585
515
501
599
535
538
613
538
568
635
556
586
644
546
558
614
499
524
552
450
492
530
449
511
522
431
522
528
438
521
515
446
534
506
460
544
499
457
542
493
462
539
494
468
553
472
463
557
463
466
559
471
475
546
479
507
561
468
523
571
461
507
532
439
482
517
438
503
511
432
510
513
444
520
505
441
529
478
430
581
641
827
1001
757
476
506
432
468
541
441
470
535
440
482
539
434
494
542
438
496
542
454
510
539
458
529
551
472
560
546
507
592
556
522
608
565
529
610
538
501
575
494
458
528
458
441
515
429
446
529
435
442
529
427
472
529
437
469
514
429
486
514
433
496
507
435
507
492
431
509
500
432
515
480
433
527
478
439
528
470
451
530
471
462
548
474
490
572
464
466
544
461
462
534
440
476
540
438
474
548
452
491
525
461
507
500
426
550
670
821
1001
798
432
498
479
459
536
478
462
532
472
479
545
463
480
568
469
481
565
469
503
563
472
512
574
485
545
590
499
582
611
529
606
615
532
596
588
504
559
527
444
518
468
424
514
452
427
506
453
430
531
457
435
523
438
462
526
424
447
521
440
460
541
437
471
529
421
471
537
428
476
523
425
491
531
420
486
515
432
503
501
430
515
497
438
546
505
448
554
517
456
535
483
453
531
459
455
528
467
472
527
473
483
546
466
502
556
424
482
592
601
891
1001
766
526
477
460
534
517
457
546
501
462
555
497
477
560
486
471
577
493
483
565
480
500
574
498
521
588
497
549
633
528
575
634
524
603
626
518
556
580
479
525
526
434
501
505
423
506
494
431
522
491
441
526
484
446
539
467
456
555
469
464
546
474
463
544
472
482
533
468
481
540
457
497
545
453
498
542
456
499
542
459
516
537
480
549
529
442
543
516
440
521
496
451
535
491
449
537
486
464
541
492
470
510
444
504
707
847
997
877
487
445
537
436
486
546
437
486
544
444
500
543
452
512
544
460
530
543
464
539
541
478
554
536
493
593
550
524
624
569
533
616
568
554
604
526
500
566
474
470
545
439
450
508
427
456
512
418
456
519
420
463
506
428
468
509
420
487
509
414
487
498
423
512
484
429
512
485
423
516
481
421
524
489
451
522
476
471
562
486
465
559
498
484
541
452
461
518
433
472
522
444
479
532
437
489
522
435
497
522
398
493
568
609
931
997
749
498
456
448
512
458
431
520
475
436
521
459
444
528
465
439
538
462
468
541
470
472
555
480
499
569
484
530
595
504
558
607
506
564
623
497
537
557
445
500
501
410
486
482
408
485
462
423
494
463
438
513
460
442
534
460
436
545
451
455
541
441
467
551
451
455
538
450
463
525
436
480
533
433
480
519
436
485
515
442
521
534
442
516
542
478
535
505
443
516
503
446
517
470
435
530
484
458
540
473
457
542
466
449
528
487
617
922
989
835
605
418
480
529
455
497
538
446
492
546
474
525
535
454
531
534
466
542
524
455
556
545
489
571
538
499
606
557
525
620
564
539
628
570
548
613
499
502
566
459
477
537
422
478
541
433
473
534
433
491
536
439
501
531
456
516
537
437
520
538
446
532
516
454
537
501
445
538
494
441
535
498
460
525
490
480
537
471
472
558
458
478
569
466
493
578
475
514
581
468
505
548
448
499
537
450
512
533
445
527
527
451
540
527
455
538
504
408
557
609
753
1001
881
528
478
453
470
543
436
476
537
446
483
550
449
496
542
454
512
558
455
523
546
476
551
545
462
577
557
497
596
576
529
619
584
532
613
575
524
594
512
465
547
481
446
522
433
446
537
442
462
526
442
476
531
435
478
536
439
476
533
434
495
522
438
502
526
443
526
514
447
509
513
450
522
503
455
535
504
446
536
490
471
545
481
471
576
504
494
547
469
486
536
451
492
551
446
495
561
458
495
553
446
520
542
430
472
563
602
897
998
766
515
479
435
503
482
439
497
485
442
533
479
439
533
483
453
548
464
455
561
462
484
587
471
489
573
492
528
599
502
568
627
518
568
624
508
552
563
455
507
515
433
487
500
417
492
480
430
504
471
443
524
474
452
521
477
462
533
465
453
548
458
463
542
457
465
537
454
485
544
437
478
552
448
499
568
453
518
589
466
518
546
450
515
508
437
515
500
434
529
510
446
534
513
452
540
490
409
557
576
721
1001
894
601
491
432
485
527
441
494
535
439
480
535
453
497
528
454
521
517
451
542
532
452
545
543
486
566
548
512
601
560
527
622
560
550
634
557
523
600
507
481
548
461
468
539
433
475
540
425
467
542
443
483
532
428
491
541
435
507
535
445
514
518
454
522
519
446
542
514
455
539
502
449
534
508
473
554
516
471
570
522
485
544
472
482
539
449
476
539
447
481
547
445
491
532
434
513
526
418
477
560
584
895
999
769
525
459
431
517
498
428
509
490
440
517
479
442
523
473
448
542
467
466
563
464
466
567
475
506
574
491
522
591
510
555
612
524
566
612
513
552
559
453
509
518
405
486
497
405
486
482
412
490
474
414
498
474
439
519
463
441
519
464
442
529
456
459
546
447
463
538
430
468
542
445
470
541
441
487
543
444
496
549
477
522
525
446
515
515
425
519
515
428
511
501
435
524
501
449
525
485
444
491
482
529
782
973
900
671
414
438
529
431
462
527
436
468
524
445
472
529
431
495
538
434
506
548
450
514
550
461
541
564
472
565
585
499
596
599
522
614
583
523
592
532
474
560
478
445
524
458
436
518
432
443
522
434
453
518
418
476
526
414
459
518
413
477
523
423
485
505
436
486
505
429
493
494
422
505
493
419
509
510
430
529
502
468
553
479
446
536
465
439
530
436
449
545
447
461
545
443
469
564
453
483
516
427
526
718
870
996
790
431
474
529
426
503
520
437
517
512
447
528
515
456
542
516
462
549
520
478
556
517
501
581
513
521
611
519
548
651
548
559
644
553
561
620
508
530
577
449
497
535
436
498
525
443
502
534
446
522
513
453
535
527
460
546
521
452
551
521
470
559
503
475
565
493
472
563
476
478
574
483
484
573
492
509
582
482
511
565
472
497
542
451
514
552
446
517
545
468
530
542
448
540
536
427
505
565
611
918
995
783
554
445
448
542
468
445
544
473
455
537
465
478
548
462
485
562
464
495
567
477
513
574
486
537
579
485
574
606
503
580
607
523
597
589
507
571
539
459
542
501
427
507
481
431
517
460
432
526
458
442
518
456
464
553
445
448
547
454
472
534
433
478
547
450
494
533
432
487
527
453
505
532
444
508
545
480
530
513
442
520
487
439
537
482
429
521
490
456
528
471
442
540
466
451
506
479
563
852
992
874
646
411
469
547
436
473
528
427
493
539
446
502
541
455
539
537
454
531
541
463
541
542
459
556
545
484
581
543
508
611
567
531
624
556
516
605
497
481
561
444
452
531
429
450
524
434
449
522
433
476
528
425
490
536
436
500
519
441
526
521
451
520
523
453
531
512
443
543
502
454
533
488
459
544
505
471
544
503
494
559
469
465
538
460
459
541
459
470
537
441
481
536
444
498
540
437
483
509
467
651
913
965
808
539
385
515
493
408
525
494
431
524
488
441
530
483
444
527
477
464
525
474
470
550
479
485
579
485
527
605
511
550
621
514
557
632
521
561
592
460
528
535
433
500
517
409
507
498
417
507
490
426
511
485
425
530
490
426
537
474
446
544
480
459
537
466
457
532
457
463
535
430
461
538
430
461
543
447
473
554
450
508
556
439
482
540
437
481
501
425
497
497
421
515
488
435
517
484
444
525
462
429
572
608
835
1001
744
462
495
434
481
533
425
468
523
427
477
529
433
505
528
447
504
525
451
521
522
454
537
534
466
574
546
495
594
561
529
629
562
543
617
530
520
586
476
464
545
447
452
509
432
468
531
424
463
529
435
483
541
433
491
545
434
496
532
450
514
522
447
527
511
444
536
510
435
529
513
445
535
487
459
545
490
479
560
476
491
591
477
474
558
450
475
533
443
484
544
436
490
545
435
507
543
429
523
536
400
525
605
670
999
939
562
493
484
454
534
467
441
543
464
451
544
462
464
555
470
487
546
455
502
542
456
515
559
459
534
586
496
558
614
520
589
598
529
604
593
498
580
546
463
537
500
437
520
481
426
512
474
442
520
452
460
535
468
467
541
451
471
549
450
472
555
446
494
544
440
502
527
447
509
530
437
508
536
446
528
538
454
559
532
452
537
518
436
528
503
441
542
486
464
554
471
465
559
484
475
563
447
464
632
663
922
1000
731
471
506
459
498
546
442
492
539
435
507
544
460
506
531
462
537
526
460
542
521
472
571
533
479
581
546
516
598
552
527
637
561
549
630
530
529
594
477
485
522
459
499
529
425
475
518
435
499
521
440
508
527
434
513
527
435
515
515
436
502
521
452
525
499
449
540
499
446
539
484
451
540
488
479
551
482
473
576
494
486
556
446
468
541
443
483
536
433
495
542
426
486
527
433
504
537
408
481
550
570
876
998
784
554
463
435
509
485
433
510
496
451
532
469
453
557
477
470
549
459
485
563
483
499
558
465
515
594
484
523
603
518
571
613
522
576
624
510
564
563
457
506
501
417
498
486
396
494
472
398
503
471
411
488
461
439
508
448
433
524
444
440
529
444
436
531
440
463
523
424
465
523
423
471
542
412
487
533
430
483
529
446
502
534
434
537
550
452
514
505
442
512
483
432
527
480
435
533
478
455
537
466
452
539
457
425
547
543
710
1001
853
595
484
416
490
513
425
489
532
431
505
524
440
527
523
437
547
520
464
537
513
472
564
510
487
586
530
524
608
535
536
645
551
553
637
539
541
599
479
502
541
430
490
526
416
479
511
417
489
509
424
511
503
417
509
512
434
524
501
429
520
487
452
529
481
435
536
474
443
542
460
446
547
447
461
533
429
471
538
438
474
526
448
490
542
453
503
554
468
530
547
442
528
529
443
522
529
446
536
517
454
551
514
463
559
509
473
546
478
513
681
808
995
946
556
448
546
467
481
549
473
501
553
456
486
559
472
514
550
463
520
559
460
528
564
472
554
570
479
578
589
509
608
598
522
611
611
547
622
561
500
568
486
451
544
458
443
518
427
435
534
428
437
532
433
458
520
431
479
521
425
489
532
430
495
529
428
498
513
414
516
509
436
518
496
437
523
494
448
535
482
446
544
489
453
562
496
461
566
504
489
558
465
479
554
447
482
546
458
493
550
446
495
538
443
512
547
427
466
549
524
814
1000
811
594
443
430
539
471
440
533
470
455
527
453
458
551
465
464
551
472
489
552
456
495
576
470
518
571
488
550
596
504
581
611
523
602
607
515
589
560
462
525
506
447
512
470
428
512
455
427
517
457
436
525
458
446
526
455
456
523
459
471
533
436
469
535
437
468
529
428
480
527
416
485
531
416
491
524
427
515
529
432
546
550
447
523
497
438
516
469
431
526
458
433
532
464
448
537
459
453
540
429
433
589
585
833
1001
726
496
479
418
500
512
414
498
515
433
517
495
443
523
510
455
538
497
455
544
504
455
557
516
488
588
507
517
613
525
539
633
544
556
618
519
549
584
460
499
525
422
482
529
408
482
512
408
493
507
423
496
494
430
508
502
425
509
491
434
530
481
441
539
483
455
541
468
455
546
469
454
543
451
481
551
446
501
557
448
527
576
450
507
541
436
494
529
429
513
542
436
528
536
441
537
521
434
534
497
448
586
678
868
1000
744
447
523
467
480
554
458
487
548
460
502
559
452
515
562
465
537
556
468
553
548
477
561
550
477
582
570
515
603
595
534
638
598
545
641
575
519
602
511
476
557
471
456
535
437
464
537
428
468
525
440
488
525
432
487
534
436
487
523
428
482
517
426
502
514
417
512
525
432
520
499
423
538
491
434
541
499
449
574
506
455
568
510
470
544
468
460
529
450
471
536
445
473
541
448
489
546
434
489
544
387
506
608
660
986
988
636
480
496
432
518
507
419
533
501
436
535
492
458
549
482
474
571
483
477
577
486
491
586
496
519
605
506
545
622
522
576
641
532
585
635
508
554
590
460
519
530
421
495
502
414
505
498
414
498
477
417
523
482
417
515
496
439
530
472
439
537
462
453
550
459
460
548
454
454
536
448
481
530
427
491
544
443
502
528
459
528
528
427
512
519
414
497
515
426
500
509
431
516
491
435
537
494
438
524
456
474
657
809
979
899
500
417
545
445
469
557
454
475
540
440
500
564
452
495
545
452
512
552
447
515
553
460
550
548
459
568
556
497
602
580
514
613
590
532
610
539
496
573
493
459
544
461
447
535
446
444
536
446
463
541
430
477
557
426
481
540
430
504
524
436
501
535
431
521
537
440
512
526
431
533
517
438
541
525
458
561
537
479
553
493
468
542
475
470
544
466
459
551
455
483
565
457
483
563
440
455
576
541
753
1002
856
607
506
428
517
496
438
540
499
445
544
503
455
544
501
473
559
490
470
568
493
493
571
499
513
585
521
552
619
531
571
635
545
600
648
511
584
609
472
527
552
451
511
520
429
517
515
432
517
507
441
524
492
444
537
481
449
541
482
456
550
480
463
552
458
458
559
468
483
545
451
484
539
449
512
544
432
539
558
415
492
515
400
482
488
400
487
480
399
482
476
403
502
466
393
482
433
437
619
751
936
915
524
380
512
423
419
517
423
433
509
420
437
506
425
455
522
423
465
528
422
483
530
426
507
555
459
538
549
485
565
574
479
603
576
496
590
547
467
554
489
444
528
450
429
530
449
444
530
432
470
547
438
470
549
451
487
552
441
491
559
443
511
545
432
509
540
455
516
531
444
523
532
449
540
512
450
569
520
458
562
520
493
575
510
475
566
462
462
557
488
473
543
495
504
560
468
489
569
470
508
535
463
564
768
906
996
784
407
500
551
444
518
539
438
529
538
451
540
527
455
550
532
459
562
517
469
574
515
502
588
530
522
613
540
538
634
563
577
652
563
586
644
510
549
595
453
502
556
440
503
527
419
500
516
419
500
510
440
518
500
432
537
508
431
543
507
437
549
491
452
547
470
462
561
463
465
556
452
462
554
459
472
549
450
513
560
459
528
576
457
506
540
444
504
522
421
505
540
431
510
523
441
532
518
438
536
467
434
582
658
864
999
749
442
504
453
456
544
453
450
539
452
476
559
443
481
549
458
499
551
450
504
554
455
533
558
460
548
575
488
577
573
515
612
592
515
605
579
492
580
497
442
532
459
422
526
442
424
522
434
434
529
441
441
531
438
457
534
427
475
530
440
486
521
424
500
536
433
494
529
421
499
522
434
514
502
430
534
487
432
552
495
449
558
489
439
546
477
416
515
450
448
546
432
438
520
435
467
533
435
468
515
385
505
637
711
1000
876
456
470
501
418
513
500
438
531
498
444
550
501
445
562
486
460
552
479
487
558
478
497
574
479
522
593
491
543
621
515
568
624
515
576
610
493
563
560
431
521
527
411
510
521
422
512
505
416
511
500
440
529
485
449
545
490
459
563
487
464
569
477
475
566
461
487
571
464
496
553
451
506
563
457
536
572
456
551
583
463
527
541
442
513
534
445
519
530
450
537
515
453
546
520
463
541
466
477
641
744
967
997
680
432
536
484
488
556
458
487
564
467
495
551
462
514
558
453
511
556
458
534
556
462
557
567
488
580
577
504
619
603
520
631
610
536
633
567
506
596
502
464
554
457
447
543
449
454
533
439
468
523
431
469
530
432
491
522
416
484
528
420
484
515
413
492
504
413
497
486
404
503
481
415
497
492
437
536
476
452
548
464
431
528
435
433
517
437
433
527
417
446
535
427
448
528
430
471
492
412
540
738
871
972
726
383
457
516
410
494
503
411
511
505
428
520
498
437
537
491
450
561
498
457
552
503
485
570
502
507
600
501
535
619
505
560
646
521
568
610
489
535
554
427
507
529
413
496
517
404
498
500
412
513
500
414
518
495
413
540
496
433
530
480
451
548
486
452
550
454
460
543
458
446
555
454
453
543
444
494
542
444
526
567
453
531
565
436
503
540
430
503
525
432
521
520
435
520
513
453
544
515
448
540
475
457
603
690
913
998
720
438
522
458
477
555
447
477
564
451
483
549
464
523
554
449
523
559
440
537
567
454
535
565
474
573
596
498
596
608
530
629
602
542
629
577
545
599
509
474
561
471
452
533
448
446
556
450
469
551
445
478
545
438
482
547
448
504
546
446
502
552
444
515
519
441
519
539
448
531
531
442
537
511
439
527
492
470
564
499
476
572
508
474
551
472
467
541
459
461
546
445
465
547
448
484
537
441
492
541
428
476
575
526
785
1000
818
604
481
441
540
503
449
552
494
464
558
463
468
550
461
479
560
463
497
585
461
496
566
457
522
575
484
550
603
493
571
607
508
591
624
512
571
565
473
536
511
428
516
478
416
525
471
410
513
481
436
523
466
434
551
466
449
548
453
470
550
441
486
547
438
488
542
434
486
549
439
498
552
440
515
546
436
527
562
445
526
511
422
516
483
424
527
481
430
532
484
430
541
474
455
542
451
424
556
538
705
1001
887
612
489
416
496
521
422
506
528
439
512
520
443
523
523
441
528
510
447
561
505
434
569
508
481
576
508
497
614
540
527
617
518
572
638
530
536
601
473
478
549
459
491
529
410
497
509
406
487
510
414
481
511
396
489
505
404
526
489
429
499
502
414
520
464
471
526
473
434
557
455
448
547
484
452
544
502
461
544
460
435
538
382
465
548
398
459
545
379
499
509
407
468
509
390
469
522
514
805
996
800
579
442
381
477
449
391
520
435
414
495
421
412
494
418
430
519
447
417
524
455
433
542
438
476
568
428
537
610
461
568
605
488
581
624
481
566
558
454
525
528
394
499
501
425
509
472
433
552
467
452
547
427
465
569
448
465
609
452
482
584
456
498
583
460
488
592
474
493
551
479
503
558
452
526
555
467
561
532
445
521
490
433
544
489
415
534
449
446
537
452
426
516
470
458
490
466
535
794
923
892
659
377
435
492
392
469
536
382
404
493
416
484
478
369
463
498
383
495
487
377
511
477
392
489
476
432
536
490
470
562
498
486
601
502
462
567
466
416
507
412
353
510
378
389
498
349
398
491
388
404
501
358
431
488
389
450
494
378
467
489
363
479
481
372
471
441
384
520
455
380
534
450
360
547
469
407
458
476
433
482
418
393
492
403
403
528
406
435
497
392
435
487
377
432
545
513
816
999
746
474
433
371
470
466
387
482
464
408
491
473
408
475
502
426
509
502
427
536
448
481
556
449
506
567
487
513
606
525
556
643
516
551
682
602
593
647
457
559
595
440
506
538
419
532
512
407
522
524
402
552
528
421
530
496
430
583
485
436
588
470
471
576
424
487
597
449
460
577
485
454
554
504
503
548
416
481
570
421
441
532
436
484
498
389
495
512
402
566
492
412
504
531
516
780
1001
904
656
409
444
593
440
478
542
462
497
595
480
490
562
442
557
557
477
546
571
468
598
585
461
563
601
487
592
629
554
630
619
537
644
596
533
617
533
522
552
475
488
515
434
456
524
445
484
537
411
453
538
465
485
506
390
490
560
361
459
577
435
484
508
393
485
539
435
517
503
439
540
502
430
516
528
422
502
478
391
549
461
431
551
455
487
579
410
440
524
399
511
789
865
993
838
444
438
562
411
514
547
412
513
542
371
552
564
482
519
490
484
550
492
460
568
509
480
561
522
479
559
511
562
608
525
525
647
541
537
608
507
515
557
458
508
549
396
516
557
414
474
557
437
508
524
424
525
536
431
532
515
448
545
502
438
571
494
448
558
496
449
566
479
471
604
483
457
557
455
449
557
417
476
566
471
456
534
432
497
530
431
510
537
383
501
618
704
997
956
548
481
476
429
536
484
429
547
468
425
577
487
447
568
475
489
553
432
508
596
452
499
611
475
518
630
492
541
640
522
591
636
543
604
602
490
580
533
451
544
516
423
526
484
433
542
479
423
563
488
454
541
470
458
544
451
468
566
449
464
545
432
492
553
426
492
553
467
486
552
417
493
533
382
472
523
405
483
481
398
523
486
412
519
458
416
525
461
401
550
613
841
999
727
431
504
434
434
535
418
427
550
419
456
514
420
481
550
417
489
553
429
504
545
412
524
561
425
565
563
453
575
571
474
594
566
505
608
549
473
558
479
445
545
458
421
526
426
431
553
445
441
546
418
473
557
448
480
531
436
490
570
427
487
556
430
507
538
421
544
551
417
534
558
439
532
500
422
525
463
407
529
465
422
541
476
423
535
484
458
571
460
423
553
503
706
1001
843
638
508
387
499
538
420
509
524
418
514
539
429
532
523
445
537
485
481
582
507
457
583
514
476
614
523
509
624
520
539
674
539
566
655
529
557
621
485
504
552
441
480
552
444
500
521
418
523
522
426
537
533
438
540
499
433
567
496
442
563
504
429
554
480
463
566
457
456
577
468
477
581
472
482
548
437
482
553
406
494
568
412
484
565
420
513
560
435
517
532
411
504
562
578
890
998
763
546
459
435
548
481
445
559
497
469
571
476
489
583
467
491
572
501
518
588
484
520
590
487
547
629
500
583
646
514
608
656
526
613
643
521
599
577
451
549
535
432
542
491
427
538
481
441
551
487
448
545
471
466
551
460
479
566
442
477
564
441
470
544
445
518
575
421
507
612
456
515
544
425
521
529
411
516
511
438
546
519
413
525
519
429
530
507
437
506
525
561
881
993
812
596
388
445
547
440
444
530
428
464
546
396
488
565
410
495
551
423
511
543
432
542
567
446
540
569
473
580
584
504
613
592
517
622
592
509
592
531
469
553
467
445
535
440
437
553
452
438
538
428
449
562
433
477
559
434
490
557
431
503
549
413
503
525
419
512
534
416
516
506
438
544
539
427
513
495
423
514
463
410
518
480
425
540
478
438
545
449
448
577
442
424
545
496
639
963
941
729
552
374
473
541
412
484
538
423
495
526
437
526
515
430
541
523
432
538
517
450
559
528
468
578
536
492
612
551
536
638
549
563
646
534
540
625
475
490
576
430
461
543
404
446
539
414
467
518
419
490
522
415
504
520
423
525
512
398
531
496
419
540
471
424
552
478
431
541
468
463
560
459
464
593
469
437
565
454
454
518
432
476
533
419
466
517
414
497
535
410
500
517
388
538
603
634
971
981
609
483
478
408
510
493
411
516
482
425
518
457
438
542
441
444
550
442
437
553
453
459
560
450
491
583
482
522
600
471
538
625
488
554
612
462
521
537
434
496
486
401
495
478
401
505
476
402
506
478
421
526
469
434
554
467
424
550
477
461
564
454
429
582
468
471
562
428
473
565
427
481
557
441
523
553
451
543
551
429
526
521
389
524
534
414
523
514
433
529
488
431
546
498
432
530
467
472
681
802
939
921
532
416
543
440
456
565
456
460
545
450
495
573
459
508
552
463
544
577
449
552
571
455
560
565
496
595
597
495
623
606
527
640
596
528
652
566
493
589
512
474
570
469
448
561
444
463
553
436
489
562
439
487
574
442
487
552
442
523
552
426
538
559
439
524
541
441
543
552
453
544
526
443
558
529
448
584
521
461
601
509
472
567
482
452
551
461
457
564
467
462
552
441
485
564
431
489
559
397
482
597
582
906
997
711
514
500
409
504
514
414
531
495
408
516
505
436
528
486
432
547
482
440
562
478
449
570
478
470
564
481
515
626
502
536
620
496
554
620
485
543
579
423
487
533
392
471
513
379
476
482
393
506
484
382
506
471
391
531
473
376
536
478
422
528
458
432
540
444
441
547
425
452
555
432
467
552
436
487
582
442
471
549
429
476
516
402
477
517
407
495
518
407
513
512
413
524
505
415
497
516
546
858
996
818
612
440
453
542
461
458
562
450
471
572
446
466
593
468
492
571
461
518
583
447
528
583
446
552
590
477
571
610
501
600
622
518
613
588
491
625
567
448
541
504
439
542
456
424
555
467
426
543
458
439
549
433
457
570
440
460
564
438
480
541
423
498
550
442
497
518
419
510
528
435
508
512
428
544
537
446
539
538
464
546
511
431
537
481
444
547
455
445
561
472
452
559
459
461
560
453
453
533
466
604
916
966
801
599
397
495
548
403
506
571
434
522
537
424
560
551
437
538
519
459
560
525
466
577
526
470
604
527
491
623
536
532
648
553
542
646
538
547
639
495
512
570
435
488
556
428
493
540
414
496
529
425
517
530
406
524
539
415
525
517
432
534
498
435
539
499
437
562
483
432
565
470
436
573
475
449
572
470
485
585
453
496
602
472
511
583
424
480
567
428
510
536
429
524
544
439
524
536
430
536
528
396
546
592
673
1002
919
570
504
430
473
563
435
439
561
456
464
542
451
497
541
422
492
547
416
500
541
413
526
542
425
539
552
455
566
577
479
599
577
493
623
554
473
572
509
443
533
457
407
518
425
407
531
420
416
522
413
428
530
416
441
525
407
458
505
400
485
518
390
494
516
393
505
525
411
508
501
402
514
499
409
529
506
428
550
497
446
591
495
431
544
468
430
544
439
445
568
433
446
550
441
480
557
422
499
565
394
503
625
647
964
995
639
467
504
432
535
526
430
550
521
434
559
530
436
565
525
455
567
504
476
582
493
482
595
494
502
607
497
530
645
530
555
652
525
578
648
515
536
591
460
508
540
421
500
517
409
507
513
403
518
507
410
525
491
423
547
489
433
540
483
437
548
471
441
559
454
438
554
452
452
546
446
463
551
443
495
566
459
523
555
407
486
529
403
470
519
397
478
520
403
502
503
408
521
488
412
519
468
436
635
749
928
964
571
375
529
447
440
542
442
450
542
437
471
560
428
469
577
438
496
574
443
513
577
446
530
587
475
562
589
497
612
614
502
612
617
521
623
594
478
580
530
449
545
488
439
536
458
440
533
454
454
541
438
460
564
441
455
554
438
488
560
422
493
545
423
491
547
412
497
536
415
508
510
399
523
517
406
514
511
425
565
512
405
539
496
407
511
462
426
550
457
431
545
444
456
555
444
455
550
430
449
569
587
854
1000
758
498
483
399
480
529
397
498
522
405
515
518
405
553
519
411
546
503
435
557
498
432
556
509
475
583
491
484
635
516
530
625
525
554
630
499
534
584
447
499
545
397
464
522
390
478
513
390
497
502
388
501
511
410
513
478
415
536
480
405
542
491
422
544
478
444
545
452
454
566
440
458
568
459
468
557
451
500
588
461
511
587
460
522
565
441
512
545
440
529
536
414
541
537
422
535
529
439
556
520
404
574
608
725
1003
864
510
515
444
477
578
444
482
579
442
505
575
443
510
553
436
531
566
438
547
572
447
556
571
478
571
569
478
618
577
510
647
582
542
635
567
529
618
506
458
577
454
441
552
438
444
538
416
450
527
419
468
535
413
477
541
421
507
545
404
512
529
422
534
529
421
537
511
419
546
510
418
547
491
416
525
494
444
553
481
446
575
498
474
559
462
461
552
426
461
560
444
473
539
436
508
557
418
494
564
409
484
568
492
805
1000
799
595
456
409
550
488
430
546
472
456
558
463
471
580
460
467
585
466
501
591
479
511
604
484
538
607
496
587
649
522
614
642
542
647
641
532
633
596
469
576
552
444
554
507
448
559
480
426
559
486
437
561
463
455
565
448
457
557
444
482
573
441
482
557
426
509
567
420
489
556
421
508
527
414
527
541
420
527
521
440
556
527
429
571
514
429
530
492
411
532
475
439
538
461
440
541
444
450
548
424
456
563
404
425
574
553
840
1000
690
486
465
388
512
487
385
532
498
402
534
490
402
537
496
433
557
481
441
566
475
460
564
458
482
590
499
502
600
514
577
628
507
579
633
495
555
585
438
515
525
414
513
506
378
506
502
399
522
481
408
535
491
420
529
481
430
544
460
431
550
460
434
557
447
440
557
445
460
551
427
451
564
423
467
548
410
498
558
425
525
564
406
491
532
387
496
503
393
514
503
393
510
485
396
537
472
405
525
434
399
580
613
811
1001
701
444
509
419
473
553
432
489
551
432
501
556
432
527
548
439
546
546
432
551
548
453
563
548
461
590
549
487
621
579
524
660
558
529
662
541
525
614
476
466
567
439
459
543
407
468
546
399
468
569
408
492
555
419
507
542
406
517
540
417
525
512
425
540
523
432
540
489
425
550
480
439
548
459
433
547
459
451
554
455
453
585
471
472
558
424
475
544
414
472
526
417
501
536
418
508
545
426
512
542
433
504
544
526
830
998
847
656
477
422
542
482
442
565
464
444
579
471
457
583
482
468
573
447
496
591
448
511
598
485
528
618
480
581
643
501
623
671
522
635
658
516
633
618
474
568
556
449
565
523
442
567
510
441
550
481
450
577
473
456
567
478
464
564
456
472
575
449
491
549
430
489
560
429
493
556
402
510
559
404
504
548
422
515
519
419
534
510
433
556
509
442
590
523
430
562
507
438
551
481
456
554
456
450
577
458
454
572
460
486
574
413
471
622
600
891
1000
741
498
492
419
497
532
417
525
517
414
539
525
421
536
512
423
547
491
437
543
490
449
555
496
474
579
491
492
624
521
510
638
520
538
645
496
517
593
446
457
524
411
462
501
380
470
507
368
479
504
383
498
482
377
506
487
387
508
493
413
529
469
411
556
454
418
545
461
438
531
435
453
540
423
439
532
423
460
538
404
484
560
435
496
559
403
483
541
389
486
526
400
511
512
391
527
531
406
518
515
425
533
465
430
610
732
914
982
598
391
542
444
434
557
437
449
561
447
471
560
449
498
562
421
497
566
437
513
571
433
532
566
457
555
582
474
598
617
505
610
624
525
628
587
501
586
516
440
541
477
423
529
455
432
535
422
444
559
428
455
551
449
477
553
432
485
567
432
486
541
429
534
565
409
532
564
433
526
526
426
555
537
429
554
548
462
564
533
480
575
511
449
556
462
442
568
468
446
548
446
471
562
415
480
581
435
482
539
429
568
806
907
963
693
394
494
542
396
520
552
424
524
539
421
550
519
431
549
523
440
565
514
467
596
519
488
605
510
503
620
523
549
655
536
550
660
537
570
633
478
538
602
423
504
560
401
492
523
396
493
500
404
512
502
393
517
491
390
531
511
391
528
503
431
551
478
425
542
467
419
530
446
433
537
438
433
537
422
480
559
406
490
568
421
491
531
383
471
543
399
483
506
401
502
520
383
516
508
414
529
473
387
582
584
728
1002
852
489
494
449
469
546
427
470
547
433
489
567
422
503
561
427
526
568
428
534
572
438
536
558
445
571
574
466
608
598
501
630
611
516
647
586
507
605
516
473
571
443
458
575
435
447
574
431
473
547
442
471
561
427
490
558
426
493
554
420
512
545
420
527
528
420
543
526
417
545
542
420
539
525
440
543
491
467
579
489
447
592
523
480
578
463
444
573
441
469
558
441
486
562
429
498
574
432
505
556
430
480
560
504
749
1000
851
638
444
408
544
488
444
551
481
451
565
475
467
586
480
482
587
470
507
596
460
501
590
464
523
603
470
551
615
487
594
630
500
596
645
514
588
578
459
548
513
408
516
485
404
509
462
407
529
450
415
527
442
426
531
426
436
540
428
430
529
427
461
540
410
457
534
407
467
530
393
487
526
391
505
536
396
501
526
399
516
510
426
539
529
440
533
491
418
508
493
444
541
450
426
546
444
420
548
444
435
545
424
442
527
461
592
885
929
809
590
359
464
547
419
499
531
412
529
529
432
547
534
429
550
533
437
562
525
432
561
528
463
578
522
482
602
553
519
642
565
553
656
555
560
642
513
516
587
456
506
538
401
488
548
390
493
540
392
511
542
410
524
524
420
534
520
408
531
508
425
535
502
444
542
492
447
548
458
449
559
460
459
555
446
476
564
458
492
598
466
485
558
417
483
549
416
487
552
418
506
541
410
519
553
429
531
532
404
519
565
606
975
994
722
540
451
419
557
467
442
563
472
458
571
456
478
584
461
471
585
462
505
589
462
518
597
468
559
615
478
587
634
509
622
659
535
635
631
522
636
595
459
569
560
449
542
517
442
551
480
459
580
480
459
598
472
447
593
472
477
568
442
493
582
436
481
576
429
497
531
424
518
535
414
516
538
412
530
554
422
553
554
428
532
513
423
529
467
405
537
457
416
539
438
407
566
456
423
537
427
412
572
533
742
1001
798
548
467
380
490
516
390
485
518
403
504
505
420
524
514
412
534
498
439
547
486
448
584
496
454
592
511
493
597
516
530
633
518
558
644
507
539
602
440
507
565
400
485
532
387
503
528
394
514
523
408
518
511
421
534
505
418
561
493
431
570
493
431
559
475
448
574
456
441
574
463
450
563
446
468
582
447
475
582
471
507
572
417
493
549
394
501
558
407
512
544
411
531
532
419
545
519
427
540
488
453
674
844
956
870
506
387
551
450
421
555
458
435
559
438
449
562
438
466
559
434
487
567
435
495
565
426
532
577
445
552
601
477
567
617
508
608
592
511
640
579
472
574
508
433
548
480
412
539
458
407
540
446
425
549
431
442
551
419
451
545
416
474
546
405
478
548
397
477
547
391
492
527
394
498
525
419
514
516
410
529
520
425
524
528
460
544
478
419
539
474
411
546
462
417
537
448
437
559
426
452
574
433
451
534
459
609
901
932
808
589
366
481
534
394
498
545
392
521
535
396
534
546
417
542
524
431
557
507
421
565
517
454
598
511
483
614
526
522
642
531
550
652
526
547
631
490
503
602
435
480
572
430
486
544
419
509
535
397
525
554
425
520
520
432
554
517
421
561
521
426
571
505
439
579
495
438
575
491
439
580
469
454
573
450
479
574
451
475
562
465
530
599
438
495
571
438
495
522
409
538
547
408
512
525
431
536
524
411
548
526
395
539
544
643
1001
936
607
486
407
465
553
431
467
543
416
487
559
428
500
555
431
537
569
423
521
552
447
538
563
445
566
586
487
611
582
498
631
596
515
641
579
497
630
547
481
588
465
468
579
444
460
554
438
484
562
429
485
564
422
507
562
423
510
547
426
524
545
420
526
545
424
546
536
421
542
552
448
555
520
456
565
505
453
589
524
479
570
484
467
573
461
469
570
447
473
571
452
495
564
449
511
581
454
490
530
464
607
893
974
899
606
392
528
523
413
544
525
413
534
506
418
542
504
449
565
471
431
573
481
454
578
489
490
591
483
508
602
479
525
627
499
548
648
494
551
590
464
537
547
413
495
518
376
507
510
366
503
486
390
516
482
398
534
471
396
530
472
422
533
458
441
546
440
418
538
446
445
547
419
461
558
421
484
567
422
489
575
421
471
542
417
485
517
384
476
518
392
492
494
399
508
485
389
541
483
381
502
507
541
881
983
750
589
410
413
528
436
439
537
417
458
543
415
473
562
427
487
552
424
498
556
436
523
568
434
551
575
451
574
603
478
603
603
489
613
607
492
611
540
448
556
487
424
547
446
427
545
429
424
540
429
433
565
434
451
558
424
468
575
432
488
559
402
487
559
423
497
534
398
523
515
397
521
511
410
518
505
420
540
512
423
552
522
443
564
489
441
545
458
452
563
432
450
569
452
475
564
435
494
567
425
494
567
483
695
997
919
733
541
381
517
532
410
523
518
407
544
517
408
551
514
439
577
495
439
581
496
452
573
486
474
617
513
493
627
528
556
654
533
568
671
531
561
623
484
525
576
420
505
546
408
488
525
403
513
520
400
525
503
399
535
513
412
536
488
404
553
488
422
557
467
422
570
469
441
552
437
463
564
427
452
551
421
478
563
420
484
572
419
518
590
432
510
548
408
509
520
397
518
512
402
539
509
406
538
506
423
556
488
384
545
534
631
996
958
667
532
415
436
567
447
467
569
421
470
571
426
486
590
440
508
582
434
519
581
444
551
569
455
566
573
469
605
595
497
642
602
498
645
611
516
623
549
474
578
492
449
563
442
433
570
449
442
548
444
472
575
436
473
562
432
495
558
415
505
555
429
520
549
417
529
548
419
524
528
432
542
509
425
559
499
431
565
499
450
577
499
475
589
482
453
566
435
445
563
436
463
563
422
463
565
438
486
552
419
501
526
400
549
694
779
1001
753
389
511
495
408
561
483
421
566
476
448
571
462
456
580
460
462
584
458
493
581
454
498
602
463
518
617
481
563
629
491
604
635
498
609
632
488
569
571
448
539
509
418
539
507
405
542
487
409
545
484
420
550
473
439
556
460
457
567
460
470
563
440
480
580
435
493
571
417
510
570
419
508
566
428
538
573
432
555
574
441
535
532
410
526
511
409
543
496
422
560
495
417
553
488
456
570
464
417
572
536
689
1001
913
653
526
413
518
550
424
528
549
417
533
544
434
554
534
431
567
540
448
572
519
454
590
529
478
608
524
498
639
536
531
655
542
549
668
537
549
635
478
496
592
439
484
541
402
501
545
398
500
519
399
532
519
404
517
522
413
529
493
405
535
490
413
550
467
406
572
486
423
544
461
434
554
441
445
574
451
458
573
447
479
560
414
469
542
412
490
535
410
503
548
406
518
543
429
540
531
402
532
566
553
900
995
788
613
457
427
555
479
441
577
480
444
586
471
471
586
463
495
587
458
509
589
452
520
602
454
529
598
471
573
609
496
606
620
510
619
611
484
589
566
432
545
500
381
526
471
381
516
448
381
534
435
395
537
435
411
537
402
430
551
408
432
547
398
449
545
395
470
534
395
483
536
383
478
526
388
490
535
403
508
510
424
552
511
391
541
491
384
529
483
408
541
454
426
562
449
431
576
452
448
552
404
466
657
670
948
992
589
440
538
411
487
572
420
517
566
420
523
574
449
540
558
433
565
541
445
578
541
443
589
545
482
613
546
513
654
562
539
663
560
538
680
546
525
620
464
470
560
433
462
527
388
470
533
385
488
525
377
484
516
399
504
518
395
516
499
398
527
490
404
548
484
412
537
476
417
541
449
418
534
436
432
553
425
444
567
431
470
576
414
460
562
405
462
537
396
479
524
398
501
522
410
529
545
408
531
524
385
557
587
667
1002
904
530
513
438
445
571
446
446
569
450
467
567
437
485
569
431
502
566
425
531
586
444
532
579
461
563
588
484
593
597
489
637
596
492
658
598
499
598
533
461
562
470
414
537
433
406
556
431
420
549
416
433
552
421
444
540
408
465
552
403
478
535
397
487
533
398
511
532
391
491
517
392
516
515
384
502
509
421
555
499
418
546
502
445
569
466
443
553
439
425
549
428
441
569
418
440
561
412
503
560
428
501
524
426
572
781
890
954
686
383
506
516
387
537
519
399
544
525
429
561
507
425
575
509
448
586
512
452
587
485
486
599
509
516
612
490
547
654
525
566
664
524
585
635
481
552
582
425
519
540
412
501
527
394
506
519
408
526
499
394
531
490
413
536
484
415
550
483
428
546
484
467
568
454
461
584
448
469
564
437
491
564
424
513
595
408
534
610
435
513
560
423
504
527
421
540
541
405
540
545
419
546
521
420
544
505
393
566
550
655
999
928
627
505
409
470
529
426
474
529
406
496
536
395
493
560
410
510
534
435
539
528
416
555
556
449
571
559
481
602
548
519
647
564
530
670
572
518
618
498
492
566
443
438
552
420
447
538
420
460
544
400
481
559
402
494
554
400
497
545
408
508
521
388
524
515
400
529
493
393
554
490
401
531
467
418
541
449
452
574
453
461
579
476
480
578
426
469
564
412
463
575
417
483
538
433
525
551
400
518
550
412
510
517
455
687
875
893
907
582
354
527
506
415
568
506
414
565
499
447
571
467
454
576
457
468
586
452
476
581
435
489
604
467
527
617
491
575
635
503
600
648
510
607
628
468
569
569
436
535
498
419
538
485
388
536
500
409
540
468
417
552
457
432
560
452
445
555
438
463
544
419
468
562
414
465
546
409
475
547
388
491
531
390
511
529
402
515
498
416
540
513
416
553
510
425
543
482
397
534
471
416
554
450
407
565
463
446
561
448
461
568
423
454
592
567
836
1001
741
508
485
414
536
537
412
536
522
415
562
527
433
564
511
451
581
503
466
590
502
474
598
502
507
612
501
548
650
514
563
664
526
603
684
506
589
635
450
525
574
426
497
540
412
515
523
422
527
503
420
546
512
412
548
513
423
562
493
426
579
477
438
569
470
433
566
458
462
555
439
458
554
416
465
572
409
467
535
428
493
541
406
505
546
432
520
540
432
559
518
403
537
494
399
521
482
417
549
466
403
551
475
420
541
444
435
537
430
489
725
829
949
804
382
397
540
399
463
528
384
455
537
404
497
529
399
512
533
396
514
523
406
556
527
405
565
554
429
594
556
473
611
574
508
643
559
522
640
523
486
602
456
454
563
409
434
539
385
456
534
388
468
535
389
479
537
396
491
536
408
511
526
396
515
526
418
546
503
407
565
502
416
542
486
430
553
463
426
572
469
449
578
468
464
584
460
476
567
432
474
550
402
471
548
407
472
536
401
508
537
397
502
529
387
483
519
510
821
996
818
657
444
394
537
473
416
552
457
426
569
469
439
568
472
455
569
463
490
580
466
494
595
457
531
618
459
548
647
510
593
643
504
624
656
511
604
610
464
563
536
435
554
502
404
542
489
439
553
487
438
553
476
450
578
469
478
565
462
479
585
461
496
571
450
511
584
425
511
577
432
512
570
424
521
548
430
555
551
430
573
563
424
547
510
404
541
480
423
543
473
441
554
468
435
567
474
457
566
441
426
589
539
760
1002
837
534
471
418
507
513
396
511
529
387
530
536
430
552
509
434
561
512
450
566
498
442
577
502
480
605
494
502
628
512
522
659
519
528
658
525
541
606
437
503
570
403
470
508
355
483
511
368
499
495
390
505
482
383
519
502
390
522
459
404
549
479
397
532
457
420
552
445
429
549
442
439
545
435
448
550
427
477
549
407
484
559
435
508
546
393
508
520
384
486
526
393
502
499
405
529
496
408
546
503
407
534
465
442
663
800
949
923
508
396
552
444
447
563
453
456
566
439
481
560
417
487
599
430
490
564
431
534
570
442
543
574
446
580
583
481
618
606
501
642
615
511
649
583
482
610
507
436
574
478
419
556
463
425
552
432
436
555
413
440
561
413
461
550
388
477
557
397
480
529
409
519
514
391
523
503
381
522
510
399
532
497
404
537
487
411
536
475
427
561
488
452
555
445
445
547
432
425
549
428
452
560
405
469
574
427
473
553
421
494
520
432
650
916
943
860
571
366
539
523
415
540
534
430
566
504
440
599
512
432
586
528
472
595
505
477
608
499
503
614
505
528
634
531
571
653
525
609
683
520
611
649
495
568
589
416
527
532
387
509
521
398
512
520
402
531
502
424
553
474
433
560
479
439
569
467
432
572
452
456
572
442
453
569
442
468
567
415
471
566
404
487
547
402
493
549
425
520
544
410
530
553
433
536
526
408
515
497
408
532
479
409
546
472
422
544
457
396
551
465
415
516
454
525
799
919
896
681
372
441
549
396
466
551
404
483
547
397
516
560
405
516
548
423
546
529
426
572
542
432
576
553
462
602
561
496
632
555
513
668
567
540
670
526
513
599
459
482
558
424
468
564
411
467
572
407
484
558
418
516
558
427
528
538
435
552
545
422
543
539
407
547
542
430
559
509
437
571
475
425
581
470
453
599
477
445
593
490
482
575
459
510
603
443
486
582
431
480
572
424
491
567
425
503
533
408
534
550
405
529
476
400
607
704
852
999
714
379
529
486
388
542
473
425
560
459
432
564
475
467
576
441
468
599
448
495
579
438
513
582
459
546
599
473
572
617
480
605
632
513
618
599
491
612
550
429
554
501
415
540
474
400
551
449
429
556
443
437
550
436
449
559
449
456
557
431
477
562
422
492
564
409
480
537
425
512
546
402
496
520
419
527
512
410
547
526
435
573
506
401
567
510
405
540
464
415
572
458
420
560
452
459
559
441
466
571
395
463
655
668
964
994
578
422
548
414
473
534
407
499
530
398
529
534
402
529
528
412
548
527
414
574
521
433
580
501
450
611
518
479
623
532
521
650
534
530
643
528
512
606
458
487
552
399
459
533
396
476
524
382
496
531
394
520
531
392
534
529
418
545
527
417
542
510
434
571
507
426
555
486
455
571
467
440
578
465
448
581
444
463
594
452
490
586
436
520
586
431
505
571
405
470
549
415
505
532
409
528
527
407
533
506
398
543
491
375
566
636
776
1002
759
436
505
438
441
560
428
475
556
427
507
570
407
523
589
431
520
571
446
531
579
444
563
582
458
583
573
472
627
601
496
640
612
520
652
587
510
619
515
471
580
454
439
550
435
429
541
429
453
540
428
475
540
399
496
568
400
473
549
410
497
537
399
511
523
410
511
497
390
528
502
404
532
481
396
532
471
411
536
455
432
567
460
441
569
467
477
576
435
462
542
415
486
559
418
473
544
409
494
563
424
505
541
390
508
514
428
633
818
917
966
630
363
526
508
422
559
492
443
565
491
440
597
498
453
589
492
473
608
477
492
600
481
506
600
478
542
652
506
578
661
519
622
674
526
624
652
491
594
575
447
566
531
408
553
516
417
547
502
424
563
489
434
566
473
420
551
462
451
582
434
458
588
441
461
567
432
470
572
424
481
566
419
495
536
395
519
540
403
512
525
405
514
518
411
544
515
411
549
513
410
538
476
396
535
457
421
546
445
415
535
430
434
556
408
441
563
392
425
614
623
909
995
653
460
494
386
487
541
393
497
533
424
527
537
416
538
526
419
570
515
431
574
515
436
588
512
459
603
525
492
623
534
547
652
538
564
673
513
568
649
465
517
581
423
501
538
397
495
520
396
504
516
394
526
511
397
541
511
394
552
502
405
555
493
415
536
482
414
542
464
424
555
436
447
568
421
456
563
416
473
586
412
501
592
413
480
547
398
487
538
383
492
541
390
494
522
397
521
492
402
533
494
355
544
571
630
1001
926
556
483
391
444
562
409
429
556
399
459
550
421
476
552
406
505
558
421
511
569
442
531
561
435
567
583
467
590
590
506
642
589
503
649
579
504
623
520
451
574
466
414
543
448
443
545
422
451
547
415
464
542
418
471
544
412
500
562
411
510
553
418
529
536
423
539
522
421
540
511
431
554
504
435
569
511
447
585
509
457
602
502
475
589
483
472
573
455
481
586
443
487
600
434
499
591
424
509
581
412
489
612
569
894
1001
790
556
490
441
576
517
442
573
514
462
593
472
461
608
491
464
585
466
489
580
447
501
599
440
520
625
465
540
632
488
580
635
495
595
651
500
590
592
447
554
522
409
520
497
399
524
494
399
551
461
403
559
468
418
553
437
444
574
443
445
567
425
451
590
426
468
558
406
491
557
421
497
552
416
506
527
396
535
528
392
537
524
429
566
523
402
547
491
386
545
463
403
553
455
417
578
459
430
567
455
450
569
410
453
602
598
872
1000
712
466
501
407
491
540
393
509
546
407
513
543
414
531
530
420
549
529
429
567
511
466
595
520
449
604
550
492
637
546
533
660
544
551
679
541
549
631
486
497
572
423
477
544
399
483
543
372
492
546
381
484
526
397
497
517
412
529
512
403
530
509
419
536
494
421
550
485
438
555
464
442
564
448
455
568
442
460
573
430
485
586
440
502
587
433
493
567
395
488
545
393
500
546
409
524
535
394
542
533
409
565
518
384
558
583
676
1002
896
557
514
416
450
569
424
457
570
425
485
575
406
507
583
425
494
586
434
535
566
417
548
561
441
565
564
465
596
575
492
646
570
496
660
581
495
624
526
456
584
468
434
544
431
449
545
407
446
540
389
464
551
390
463
555
416
481
544
418
508
531
403
525
537
405
520
535
403
517
538
424
537
489
426
566
507
435
571
516
459
561
472
451
542
442
454
557
423
461
558
418
480
563
413
486
579
413
467
549
461
656
959
940
780
536
358
535
529
388
523
529
416
552
508
417
572
493
420
570
493
427
578
490
470
593
474
479
618
507
520
627
500
534
653
534
572
642
513
594
636
477
558
589
407
523
540
396
523
519
388
538
518
390
534
497
399
545
492
393
542
502
429
552
479
447
550
458
458
575
443
444
555
447
468
564
426
480
587
418
498
613
436
488
551
403
491
515
382
491
518
388
513
501
390
524
492
376
529
490
383
489
476
486
832
965
782
643
376
391
527
414
399
520
418
419
535
405
446
552
394
476
562
411
477
550
410
491
564
415
526
555
413
572
598
451
590
605
480
617
593
495
635
570
468
563
494
436
533
450
417
551
441
436
558
417
424
556
436
438
543
412
467
539
397
458
557
401
463
527
395
497
501
369
509
512
388
497
495
380
518
497
382
511
496
438
543
482
443
577
466
433
550
474
424
548
436
426
553
438
453
555
413
466
558
415
483
566
387
499
649
683
1000
947
518
472
486
443
573
490
424
567
512
427
593
527
467
583
508
478
595
480
488
603
488
539
623
468
532
658
483
578
648
511
594
652
529
628
673
511
612
599
442
581
547
401
546
528
394
540
496
420
544
490
426
565
494
432
568
486
448
563
459
452
572
458
456
566
406
466
558
417
488
565
395
471
550
401
497
544
398
528
550
426
527
524
380
531
513
385
509
492
391
549
482
390
554
485
381
580
488
406
553
430
473
694
790
984
910
469
404
550
433
472
549
441
477
553
410
528
579
409
531
582
441
533
571
440
529
565
464
575
572
475
617
551
518
659
569
507
687
587
525
676
562
511
611
489
463
581
452
448
547
412
468
547
393
489
544
412
488
559
411
489
549
425
524
538
411
512
536
416
501
506
429
548
515
424
542
482
418
589
503
423
589
503
431
569
445
445
567
423
445
586
443
447
568
436
457
556
423
500
565
401
452
596
538
838
1001
789
572
437
409
552
499
441
559
486
456
580
456
456
576
475
463
603
470
470
587
474
502
597
485
528
616
460
571
659
483
589
669
480
603
649
513
628
604
427
544
563
411
520
495
384
505
488
407
525
462
394
549
451
411
552
437
425
564
437
459
562
425
451
566
420
443
551
431
484
557
452
485
563
460
516
508
402
521
520
370
541
503
399
537
491
403
550
479
411
571
462
398
559
497
501
863
994
889
700
452
597
986
906
926
1002
1001
1003
1004
1004
1005
1004
1004
1005
1005
1005
1005
1005
1004
1004
1005
1004
1004
1004
1004
1005
1004
1004
1004
1002
1003
996
968
993
802
868
971
728
841
911
691
797
876
665
772
833
609
768
760
562
760
724
531
705
646
502
688
577
459
649
512
429
594
475
443
569
415
413
562
394
374
498
297
347
471
255
312
452
244
303
415
204
306
382
189
318
376
181
275
371
240
581
828
582
467
239
82
271
344
117
277
265
128
307
254
127
348
252
144
334
244
188
364
233
207
392
244
223
394
250
262
440
263
313
474
289
351
474
308
385
441
236
337
406
183
327
375
151
328
373
189
367
368
196
365
360
209
387
350
232
405
300
228
424
300
273
458
290
264
453
295
298
469
292
302
470
301
347
484
316
377
493
326
425
499
272
425
486
286
442
480
289
459
468
299
485
469
307
519
470
313
500
436
384
635
780
912
923
476
321
558
422
402
569
396
436
576
396
457
574
418
476
574
417
508
573
389
530
609
409
542
609
435
568
624
472
616
609
494
658
619
508
676
580
434
627
531
408
578
446
398
584
447
408
567
451
436
570
426
435
603
391
445
584
423
486
562
396
509
589
375
490
525
388
545
552
364
536
554
377
558
528
391
541
499
426
596
527
416
624
497
422
608
469
409
559
469
450
558
441
469
598
437
469
607
409
469
618
404
459
602
508
828
1002
841
585
438
390
572
523
403
563
515
430
574
507
447
602
499
456
604
500
476
640
483
460
637
500
518
642
479
554
671
491
598
690
494
603
675
498
606
668
440
546
586
412
543
526
381
537
497
418
579
473
390
594
496
406
580
491
421
578
477
429
583
443
463
598
397
476
619
407
458
624
409
478
585
398
475
596
390
516
567
401
554
550
399
574
566
439
579
512
423
578
519
395
562
489
425
579
487
429
608
488
434
580
488
476
599
401
494
761
783
999
928
439
451
579
397
532
603
390
537
561
403
550
566
416
585
541
396
586
537
408
599
516
441
627
499
459
634
505
497
667
510
500
681
534
537
664
483
532
645
416
473
592
379
465
535
351
489
510
345
495
519
346
518
514
369
539
496
376
560
485
389
561
470
383
564
462
389
577
430
415
567
409
434
582
421
417
552
416
458
583
401
485
587
416
506
559
382
514
561
360
504
524
386
538
520
366
540
515
374
546
516
399
510
483
436
769
928
920
820
440
366
568
420
405
578
433
445
594
429
475
592
430
481
610
404
510
613
406
521
595
382
565
615
425
584
609
456
614
619
473
653
602
481
656
569
467
619
504
414
581
472
410
572
443
405
562
421
431
584
410
435
580
432
454
567
417
492
578
368
500
612
370
500
571
369
513
555
359
519
523
387
557
523
359
560
531
405
547
516
431
568
469
404
574
430
406
591
412
406
583
416
420
592
393
440
590
382
457
538
378
523
799
869
977
789
348
463
542
392
524
553
380
539
534
420
586
527
402
577
515
414
601
517
434
602
509
459
629
488
483
648
482
516
677
502
549
706
506
572
689
474
542
630
431
510
571
380
526
561
378
512
537
381
532
522
377
541
543
390
549
512
403
560
509
394
569
482
402
582
467
399
575
455
428
584
412
417
594
406
447
590
412
476
600
421
506
612
415
516
566
383
511
573
370
521
555
381
529
533
394
558
471
416
587
483
353
569
522
559
1000
940
672
558
355
423
621
408
466
612
399
490
579
405
523
597
376
533
611
389
537
599
410
572
563
402
604
566
445
662
570
465
678
575
486
703
555
505
684
499
469
636
452
430
594
415
417
577
380
436
594
390
441
571
383
458
579
378
446
551
399
506
534
374
523
513
350
547
521
368
533
481
381
569
483
386
584
467
407
592
481
441
594
440
513
632
440
477
615
437
469
611
404
483
596
391
499
598
412
506
559
401
534
547
367
577
704
774
1002
787
373
533
472
414
573
472
433
590
452
440
611
468
461
609
466
486
622
450
508
624
423
529
629
432
564
646
461
590
654
478
628
659
500
646
642
485
648
600
425
600
521
410
580
470
408
596
457
418
588
431
441
591
439
452
583
410
471
605
407
491
596
411
501
585
401
533
564
373
539
579
391
537
561
381
551
544
401
577
531
391
598
530
414
614
490
389
569
468
397
571
451
422
577
421
432
577
379
453
605
398
416
569
442
674
1001
861
666
498
319
515
518
369
538
495
387
564
497
382
565
492
398
580
492
414
580
492
445
614
464
452
635
472
499
638
475
546
683
476
577
706
489
581
651
442
556
573
411
523
528
356
505
531
360
538
516
354
535
523
400
562
493
388
559
461
404
581
444
404
583
454
419
600
435
442
590
406
445
593
391
469
595
404
502
614
408
502
561
375
502
514
354
498
531
349
513
511
357
546
503
364
553
503
337
511
521
556
939
981
744
583
369
392
577
425
411
569
407
443
585
406
466
574
412
484
572
397
499
562
384
550
587
384
560
610
413
567
602
469
635
594
463
671
605
480
656
555
429
622
487
412
585
415
373
615
442
393
588
423
432
578
395
457
602
386
479
594
389
488
577
394
500
553
382
509
576
386
511
538
377
531
513
387
561
506
376
596
530
395
551
490
373
566
443
379
558
442
405
560
423
435
595
411
467
610
386
428
631
516
810
1002
801
569
469
369
548
519
394
557
511
396
566
499
406
596
502
422
632
478
425
613
479
447
622
480
497
631
474
540
670
487
569
696
497
580
707
492
598
642
441
572
595
365
533
571
373
524
511
372
578
498
380
543
496
401
580
478
401
565
475
415
596
455
385
603
456
430
585
393
451
608
399
446
577
400
469
569
385
491
593
395
499
555
358
529
541
329
500
521
368
509
496
358
535
476
368
559
487
370
523
444
424
755
903
880
785
384
349
548
370
408
588
376
430
585
367
436
597
394
464
552
401
496
560
390
517
533
412
578
570
391
596
585
432
619
589
457
641
584
490
659
568
455
599
474
434
583
423
397
590
420
415
585
398
458
589
381
461
582
395
477
577
337
521
604
373
498
547
396
544
541
366
566
530
368
571
524
383
584
524
397
610
524
417
630
522
404
630
495
429
590
460
430
614
450
460
599
415
492
619
416
516
617
407
481
614
538
869
1002
766
558
452
394
581
513
418
590
492
419
617
493
433
607
475
459
602
475
453
652
458
488
654
443
526
668
472
545
671
493
597
707
499
623
699
501
608
658
455
571
576
402
535
532
399
565
537
412
553
523
421
583
491
448
610
482
440
613
456
451
619
456
461
626
439
465
613
427
491
584
403
518
590
384
528
586
376
552
610
382
516
530
356
543
523
363
540
499
386
552
464
390
563
488
391
576
472
362
596
535
685
1003
868
566
503
380
487
564
382
510
569
382
522
560
384
566
570
363
566
583
404
573
542
417
582
519
441
636
507
457
649
537
496
665
515
548
706
510
518
660
458
479
592
413
472
561
389
481
547
384
498
570
360
506
549
336
524
542
354
533
532
366
531
526
389
539
496
394
564
467
385
589
431
392
585
456
412
602
442
450
590
400
441
581
373
416
580
389
428
562
371
480
567
375
482
549
386
499
499
388
616
829
886
978
644
323
528
494
358
578
496
369
584
493
407
593
487
441
606
464
475
622
443
456
620
441
494
630
454
539
655
465
588
664
493
613
690
498
636
658
438
612
605
389
551
548
381
535
518
390
552
486
388
559
478
387
583
462
394
586
452
429
598
423
427
598
418
463
604
396
467
592
381
496
578
384
484
575
396
517
564
402
539
546
360
516
542
376
532
491
359
561
496
379
560
472
387
557
502
416
570
421
460
736
810
972
922
445
373
586
394
465
611
406
473
605
405
512
603
398
527
582
410
548
582
401
578
603
399
590
580
434
617
566
456
670
584
480
665
600
538
690
536
501
640
468
440
595
411
411
619
384
431
591
401
444
556
391
485
549
364
488
575
360
501
542
371
532
545
356
528
509
341
561
499
353
572
473
363
545
478
395
554
474
395
587
475
442
576
415
432
570
374
414
539
381
474
557
368
490
568
355
483
575
357
510
532
372
600
805
868
993
671
276
490
526
364
558
494
372
556
482
403
592
480
402
589
457
418
602
449
437
606
449
457
612
444
493
611
456
545
660
475
556
674
483
590
643
454
568
583
388
536
531
353
538
538
363
544
493
388
560
487
387
564
481
418
573
450
410
607
453
405
585
440
450
590
409
453
576
391
470
574
379
490
565
377
528
583
378
516
559
394
557
568
399
569
537
373
558
520
369
557
495
375
554
489
409
567
456
425
604
446
418
593
456
500
828
892
929
812
385
422
574
397
495
600
387
517
595
404
535
591
388
553
600
388
549
577
407
588
560
400
627
565
440
650
570
472
662
573
487
704
565
495
673
524
479
585
442
469
583
387
425
576
379
466
559
365
474
559
369
494
538
351
510
561
372
505
523
386
552
539
389
558
517
389
562
509
406
579
484
414
599
482
449
597
463
492
642
449
445
614
415
456
604
414
456
599
415
484
589
404
511
576
402
541
556
356
583
703
731
1002
901
452
513
504
420
589
470
436
622
472
477
638
474
455
638
465
474
627
455
516
639
441
516
628
447
562
663
455
607
654
479
639
678
508
636
643
493
630
574
433
596
524
381
585
504
389
569
476
375
602
477
390
577
469
465
591
424
469
605
398
499
607
358
480
610
374
463
584
377
482
562
351
517
574
382
527
530
371
517
503
336
506
467
341
507
432
324
533
454
339
519
468
366
529
414
340
570
476
602
1002
820
534
501
369
454
525
349
493
553
368
511
530
371
505
529
395
542
513
392
559
522
408
571
518
422
603
507
467
650
511
513
685
536
519
695
540
529
668
481
504
625
422
483
615
407
495
581
410
506
584
403
530
577
389
550
578
395
530
554
420
541
535
422
567
498
410
592
505
411
588
468
422
617
477
440
603
477
469
608
424
457
584
405
450
588
397
478
578
386
468
587
404
509
583
411
495
526
412
661
879
912
902
563
333
559
512
411
588
502
419
584
475
426
609
483
441
615
462
456
626
466
491
639
440
500
645
468
532
659
499
574
662
528
630
686
507
630
650
443
585
591
408
546
527
400
532
505
401
572
491
398
556
469
412
561
457
415
567
435
416
588
440
414
580
408
432
595
406
433
581
391
470
574
385
501
548
390
529
550
383
533
525
350
516
510
371
506
496
381
535
474
351
543
451
401
559
408
381
601
596
839
1000
588
381
521
378
449
548
372
476
542
378
515
555
357
518
563
384
514
535
365
553
528
398
589
513
424
621
534
454
635
552
487
666
505
508
694
526
493
625
419
454
596
397
455
539
317
467
588
361
459
542
355
442
541
389
523
532
356
495
564
396
541
531
356
565
505
399
554
470
367
583
478
404
578
434
442
616
466
463
595
429
456
590
401
444
560
360
489
590
385
488
565
405
514
572
408
509
517
384
625
812
868
987
702
353
515
531
395
560
493
400
595
505
432
582
502
479
620
463
468
641
461
484
610
469
515
636
460
542
660
479
558
682
523
626
686
497
621
690
468
568
595
425
552
548
389
542
528
392
553
505
380
566
503
418
577
460
429
608
485
419
593
454
456
618
450
443
584
452
474
591
422
486
601
433
519
606
434
557
591
404
535
552
359
561
566
381
542
540
401
560
509
399
577
502
400
567
441
417
651
670
912
1000
595
407
555
405
475
582
390
485
578
407
506
577
381
530
570
405
542
549
399
565
543
433
584
537
399
590
540
461
625
555
490
644
549
513
665
524
491
632
460
453
576
394
440
569
395
436
556
380
474
556
365
467
564
363
490
529
376
525
520
367
537
515
365
546
512
391
542
493
397
533
471
416
570
474
429
588
472
453
615
425
434
595
410
430
573
411
477
587
396
481
590
399
517
577
395
514
528
422
654
854
893
942
620
323
524
538
377
537
509
416
575
492
417
593
487
406
581
493
432
598
478
467
596
457
482
624
470
500
624
472
544
674
504
586
666
501
632
664
456
591
613
414
536
559
393
536
545
395
543
516
409
556
502
420
568
481
422
591
479
419
584
479
454
591
446
458
602
445
469
580
414
491
595
411
495
573
421
534
593
426
528
583
441
573
580
394
551
560
400
544
533
396
566
509
388
560
496
417
585
473
422
602
431
403
645
622
835
1001
656
454
527
381
497
574
387
493
553
387
520
546
382
537
540
389
541
523
404
564
515
419
584
508
427
600
511
454
635
523
492
659
507
509
704
513
497
630
445
493
594
382
451
578
369
457
538
379
494
540
334
512
554
364
497
522
379
527
510
359
520
510
388
557
476
377
588
467
385
560
449
428
574
423
430
592
420
429
593
421
452
566
420
499
576
408
527
611
396
516
591
379
529
577
384
524
569
418
522
535
407
560
537
387
548
486
359
601
647
763
1002
728
412
505
385
448
553
382
456
546
383
480
555
382
483
563
375
488
554
388
519
551
381
532
562
403
554
558
429
604
570
454
638
581
480
649
543
479
628
489
435
562
414
424
557
392
413
563
375
439
578
378
446
587
381
471
574
397
489
539
399
503
550
378
515
547
384
542
517
354
555
532
376
543
495
398
582
468
389
579
480
425
587
463
439
599
452
467
608
467
495
597
420
495
598
415
480
577
398
522
588
396
515
586
415
541
575
400
541
537
436
684
890
946
900
544
362
574
498
421
596
489
413
613
481
458
592
459
488
601
444
496
620
438
494
623
450
501
644
465
557
649
472
598
686
495
608
695
508
642
637
450
622
590
419
541
511
406
570
491
397
568
483
413
581
463
413
610
476
434
588
475
472
596
439
477
623
444
474
586
418
529
581
391
521
598
401
518
580
386
524
572
393
530
533
391
535
516
399
542
507
400
592
509
378
553
454
386
552
431
388
562
419
424
564
394
417
575
399
447
553
324
470
642
624
968
984
546
433
520
351
477
541
362
497
527
371
522
518
397
543
501
398
561
510
411
586
484
406
611
501
454
618
493
479
664
494
513
675
504
537
688
494
533
630
431
507
595
389
482
552
379
502
550
377
505
544
373
532
527
375
556
519
390
547
509
402
572
508
399
572
496
414
570
478
434
589
429
456
610
440
455
611
438
476
603
455
498
607
455
524
606
406
516
587
379
507
562
391
515
527
384
554
527
339
538
516
370
493
472
428
748
932
873
770
431
337
563
450
402
556
408
434
560
415
445
576
396
458
570
409
499
576
395
482
567
405
524
572
408
555
594
442
572
610
460
606
569
479
632
562
432
584
514
394
548
455
383
533
435
400
549
407
412
558
406
425
567
394
458
574
395
456
566
388
490
578
385
491
552
390
518
541
383
517
536
372
529
510
366
555
513
394
546
507
432
585
516
438
606
487
420
583
450
444
590
434
446
596
429
490
595
437
501
616
424
474
561
466
672
973
961
850
612
365
530
582
423
551
545
419
597
564
420
604
556
436
624
537
445
622
518
473
627
507
474
655
524
498
626
515
560
678
501
526
691
519
550
660
482
534
609
402
516
576
367
477
553
379
505
516
376
523
497
376
533
511
391
547
482
388
561
486
414
587
461
407
588
453
419
577
435
448
583
401
442
592
405
442
570
393
474
573
398
483
578
401
496
551
365
477
519
316
504
517
344
505
480
343
528
487
381
534
474
388
524
448
450
791
910
874
779
406
370
573
391
406
602
413
414
554
421
447
564
403
476
584
403
485
564
392
521
575
406
544
576
441
577
581
455
618
607
464
651
610
488
670
565
443
627
543
418
541
453
443
580
424
420
566
412
445
578
412
461
576
405
474
592
397
492
572
370
501
567
381
494
539
382
531
529
368
536
523
400
540
504
387
546
484
397
572
503
423
573
499
456
603
462
441
600
432
437
573
404
478
589
389
470
572
395
492
578
392
474
524
404
622
901
897
825
578
318
505
495
384
551
500
381
544
497
407
566
500
408
566
474
412
593
483
430
606
472
448
617
471
476
642
486
533
664
484
584
684
491
615
691
446
563
636
421
527
549
405
531
536
375
526
523
385
544
507
385
553
503
400
561
488
396
555
455
419
597
437
410
576
435
432
574
409
444
575
402
465
587
391
487
597
405
491
598
417
521
582
412
550
562
376
521
544
393
527
514
405
554
496
389
585
495
421
569
483
412
545
473
513
868
971
828
664
392
414
557
409
459
550
402
480
570
381
491
577
388
515
572
389
520
579
417
549
560
409
592
584
430
603
584
488
643
591
513
689
591
515
684
561
494
624
497
455
604
442
426
611
422
435
595
421
460
580
409
476
577
401
498
550
412
509
562
423
518
540
416
548
550
389
561
535
387
553
493
394
566
492
427
576
484
430
596
476
415
587
440
415
569
408
428
598
410
433
571
405
458
569
408
492
541
364
533
744
746
1001
780
336
497
493
383
552
499
383
584
498
409
582
466
460
600
439
441
618
448
461
586
444
494
611
429
513
643
456
553
648
472
584
648
476
600
650
478
563
571
406
525
517
380
521
490
376
527
487
374
542
483
387
543
446
408
572
419
414
574
442
433
572
417
441
580
402
451
567
384
465
553
382
471
566
378
501
556
393
525
582
408
518
531
390
523
504
363
524
514
382
532
494
404
547
469
406
568
470
394
542
438
494
850
940
855
710
345
428
580
393
472
576
396
484
587
397
510
582
420
538
569
414
552
570
405
563
575
423
574
541
436
629
567
442
642
581
482
670
563
508
659
509
489
622
452
423
589
418
422
584
387
444
581
374
459
560
373
491
561
372
497
575
366
509
572
379
516
537
390
527
525
383
563
501
379
561
480
382
550
464
400
564
439
408
571
447
446
604
435
435
587
402
429
560
413
486
559
381
486
571
385
481
587
378
501
529
355
554
699
755
1001
755
359
511
455
400
551
452
414
562
442
432
573
439
448
581
417
454
586
431
498
592
417
507
595
424
559
615
448
584
633
471
632
641
475
654
621
480
634
562
405
571
519
395
559
471
383
562
438
416
588
444
387
596
460
413
577
441
459
565
420
466
569
400
473
569
400
491
552
385
509
534
398
516
537
393
526
528
380
546
528
415
599
530
440
595
497
386
606
498
412
577
459
427
595
441
436
605
427
443
590
425
491
564
410
546
831
892
952
748
357
467
582
380
488
564
382
530
566
375
529
560
395
570
536
389
542
526
417
577
498
439
598
492
458
628
503
485
659
504
505
680
508
526
680
481
506
626
425
479
568
383
474
550
380
487
529
366
492
527
366
505
530
377
531
502
384
548
504
387
560
487
404
571
469
369
577
469
395
594
438
421
582
441
440
602
453
454
580
410
461
550
345
452
547
360
481
516
345
486
538
340
483
529
347
492
469
385
628
791
875
930
521
296
528
442
341
522
438
368
524
405
396
554
412
423
553
395
444
561
384
437
583
395
484
579
391
495
599
400
532
591
420
570
592
410
560
585
387
538
504
353
496
424
334
478
415
300
488
398
336
500
371
357
504
366
367
509
343
386
519
330
374
528
337
374
492
336
416
492
313
448
497
338
467
487
327
498
497
278
503
442
226
479
402
293
548
409
299
552
512
322
499
441
372
507
343
379
628
665
855
865
364
263
439
260
298
441
219
321
482
241
351
424
211
337
448
223
366
427
233
384
391
257
397
408
248
485
437
290
514
446
365
549
443
398
550
457
368
568
369
327
524
336
359
529
321
319
533
338
396
509
329
408
515
353
457
537
325
476
521
353
494
498
374
515
519
369
541
516
367
567
527
397
565
512
440
589
510
429
595
483
426
569
447
466
601
419
445
632
434
481
588
432
504
608
398
469
609
507
806
1001
822
601
447
435
589
523
426
591
506
430
607
498
453
626
495
458
633
478
481
623
481
524
640
482
556
669
486
573
688
496
614
694
515
651
693
497
626
649
443
580
560
416
544
508
386
542
506
380
541
483
411
552
457
429
576
445
399
564
448
435
573
412
434
562
396
456
574
386
477
555
387
496
556
377
516
574
395
516
574
391
522
559
384
527
492
384
556
515
385
526
503
426
545
464
430
589
482
416
563
496
567
968
980
763
603
407
457
574
420
476
587
417
499
601
412
527
601
414
543
592
418
570
581
424
557
606
442
599
592
455
636
599
496
641
579
523
680
569
535
686
534
471
624
488
445
572
406
452
571
383
436
565
400
452
553
377
479
553
374
489
554
357
464
536
372
475
500
338
500
490
370
509
456
359
519
439
359
510
437
373
521
420
385
557
419
399
539
390
383
517
385
406
523
358
417
528
345
439
517
348
464
514
305
449
565
474
835
998
700
512
410
340
501
458
307
518
482
353
512
437
384
542
424
408
555
411
395
563
428
430
550
407
458
575
418
497
608
467
535
622
459
557
637
471
560
588
404
519
527
373
503
493
339
477
458
348
490
439
335
510
444
352
518
453
389
531
432
398
561
418
394
574
411
393
553
404
424
526
375
473
561
385
482
559
377
537
574
385
500
548
378
512
520
376
532
525
383
547
522
397
543
505
451
575
444
407
655
681
853
1001
696
452
545
402
471
589
424
511
570
416
524
564
430
541
569
425
556
545
420
580
549
433
592
543
465
615
558
470
622
587
525
666
550
533
691
550
513
640
476
474
587
437
460
571
417
460
569
407
496
569
383
507
582
411
529
576
410
525
563
432
542
544
422
554
534
446
566
506
445
601
512
434
593
495
443
627
500
467
652
500
481
595
465
492
589
427
476
609
455
503
606
413
511
596
407
543
584
396
527
614
498
814
1001
861
686
455
410
589
494
472
601
460
486
618
461
476
611
479
492
609
452
508
614
441
495
629
448
518
599
447
561
622
473
601
617
486
626
606
478
625
576
457
573
507
390
542
465
370
537
435
394
539
419
403
575
411
405
551
412
431
551
404
431
526
401
469
543
377
494
540
357
488
548
367
491
524
378
493
512
382
520
528
409
565
516
412
556
472
402
545
448
388
562
440
406
592
442
425
563
440
443
573
432
426
568
482
752
1002
854
582
470
381
528
525
392
533
525
403
563
530
402
577
515
422
581
501
453
588
477
459
605
463
456
603
478
486
619
479
554
638
487
571
656
478
556
632
434
507
540
361
482
531
348
477
496
349
499
492
366
494
464
369
515
465
381
528
453
396
545
429
378
540
405
391
531
377
406
522
381
417
508
369
439
524
366
480
545
387
480
555
388
486
506
350
474
495
360