488
482
485
482
484
483
486
490
486
484
491
492
489
492
496
495
498
496
493
495
499
498
495
493
495
502
505
502
518
519
504
519
512
495
495
492
487
481
485
489
489
490
490
491
493
493
499
503
505
494
464
504
557
677
895
922
700
542
522
514
519
521
515
513
515
512
512
517
519
514
515
514
516
512
509
513
516
521
521
522
523
526
530
539
538
540
546
549
546
545
538
529
518
515
505
498
496
493
496
497
494
494
499
495
499
497
503
506
504
502
506
504
504
505
509
504
510
510
505
506
507
505
507
504
509
516
524
527
513
520
519
508
501
507
494
485
488
493
494
494
492
490
498
498
498
501
505
501
469
489
539
647
869
962
775
563
518
529
526
515
516
516
514
519
513
508
514
508
510
510
509
506
507
505
505
512
511
508
516
521
527
528
531
539
540
538
544
540
536
530
521
508
505
504
493
495
492
485
488
492
492
489
492
493
496
497
492
496
500
498
500
506
502
505
502
502
505
497
499
507
508
505
512
526
530
516
523
522
511
506
505
498
490
496
503
495
498
501
500
497
500
504
509
510
504
472
503
558
689
912
941
721
551
526
526
529
523
516
515
514
513
514
509
509
510
512
514
513
513
509
512
512
514
516
521
526
527
530
532
534
540
543
540
546
543
531
528
519
510
502
498
495
494
496
496
490
485
494
494
487
492
497
499
494
501
503
506
506
506
509
509
504
512
513
508
510
516
517
529
523
515
526
512
500
500
499
494
488
495
497
494
493
497
499
498
497
497
499
501
480
468
521
604
758
938
838
614
531
520
511
510
509
508
504
505
506
506
503
502
505
501
500
504
504
503
505
505
506
513
514
513
522
523
521
523
523
526
528
524
525
520
509
501
497
489
488
487
486
486
485
489
490
489
491
490
490
488
492
493
491
494
494
492
497
499
494
500
499
497
497
497
499
497
497
514
518
501
509
511
496
488
494
491
483
483
489
486
486
485
492
494
488
489
494
495
489
458
489
548
669
881
912
694
534
515
511
511
508
502
504
503
503
502
498
497
495
495
497
495
497
500
495
499
503
501
502
511
518
519
521
527
530
527
532
536
529
527
518
504
503
494
488
484
484
486
492
489
486
487
487
486
492
492
492
493
496
491
494
499
500
499
501
498
501
496
503
503
502
502
506
511
516
529
513
523
528
510
503
507
499
494
491
498
502
502
501
503
510
507
507
514
514
513
483
488
542
633
838
984
839
599
534
542
546
542
536
532
537
540
533
534
532
529
529
527
526
528
532
530
527
530
532
537
537
545
548
549
554
556
556
562
564
559
558
548
539
527
515
514
504
496
497
502
497
493
498
496
495
497
492
500
504
498
500
506
504
503
508
508
506
507
506
507
510
503
512
512
521
533
518
524
528
512
504
505
492
486
491
493
490
492
494
493
496
497
502
502
498
497
468
473
523
615
821
965
805
572
510
512
513
507
503
506
505
501
496
498
498
494
494
497
495
496
495
489
495
497
498
507
510
514
520
527
525
529
536
534
533
535
529
521
512
498
494
488
485
485
483
483
482
486
484
487
488
486
486
491
492
489
486
495
502
496
503
504
496
499
503
503
505
503
513
523
526
509
520
520
511
506
504
500
492
492
495
494
496
497
497
498
497
498
499
505
498
463
479
542
642
836
955
771
576
527
524
520
518
515
516
513
510
512
508
506
510
510
506
506
509
503
507
508
509
514
510
512
524
526
524
534
531
530
530
528
531
526
518
512
507
498
490
484
491
489
489
490
486
488
491
490
493
489
492
497
493
491
492
493
500
499
494
501
499
495
504
502
503
515
519
506
513
512
499
491
496
491
482
480
484
490
488
483
491
487
494
498
492
495
489
454
486
545
651
851
932
728
555
514
503
505
509
502
496
498
498
494
496
498
498
497
498
499
498
496
499
500
498
500
504
504
511
511
516
514
520
525
524
519
520
516
509
502
498
491
489
488
486
484
483
480
486
486
485
488
492
491
495
495
496
496
498
502
502
501
501
501
498
499
500
502
503
506
508
520
522
508
522
517
500
493
493
484
481
483
489
496
496
492
491
497
499
501
505
498
494
461
498
558
698
915
919
682
530
523
519
524
517
509
511
509
510
510
508
503
504
506
510
510
506
503
510
511
508
512
520
519
517
523
528
529
532
535
541
540
535
530
524
515
506
500
498
495
491
485
490
489
489
492
497
492
497
500
497
502
500
500
500
501
502
499
501
501
500
501
504
502
500
510
510
517
531
515
513
524
512
499
502
496
482
487
496
497
496
499
498
502
498
498
504
504
504
473
469
524
610
805
974
841
595
519
522
525
521
514
509
510
510
508
506
509
503
506
509
508
507
510
505
510
509
511
516
519
520
527
529
531
536
537
543
548
540
539
536
523
511
508
499
493
493
490
486
486
487
490
497
496
496
499
497
499
502
498
502
500
501
500
503
500
499
502
501
501
500
495
499
505
504
504
522
522
514
515
510
499
494
495
488
485
494
496
494
496
499
499
501
505
504
508
511
502
472
508
565
707
943
935
702
545
527
531
534
528
524
519
522
525
520
518
520
521
518
520
520
515
519
521
522
525
522
525
534
531
531
540
547
549
555
549
547
553
548
535
525
522
513
506
500
501
502
501
503
501
500
503
502
502
502
506
508
512
510
512
515
512
510
514
519
516
513
509
512
515
513
515
518
531
533
519
533
522
509
500
502
501
490
492
503
500
503
507
506
504
506
509
508
512
505
468
499
562
670
864
943
743
574
541
528
524
525
524
521
518
518
516
514
516
521
520
512
516
520
521
520
518
521
524
521
526
525
528
535
536
537
531
534
537
538
530
523
518
506
504
500
493
492
490
484
487
490
493
488
488
493
498
492
494
495
496
499
495
490
493
496
496
498
495
497
496
496
497
498
504
516
514
509
511
501
496
494
489
486
477
483
484
482
485
485
486
487
490
485
490
490
467
454
503
571
721
910
843
621
514
506
498
495
496
496
492
489
490
487
486
491
488
490
495
492
490
493
495
496
501
499
501
504
506
514
519
517
520
524
518
525
521
513
511
502
493
491
483
481
480
478
482
485
479
484
481
482
484
486
483
484
487
486
489
490
489
489
496
494
492
495
493
494
495
496
500
501
503
519
511
507
515
501
496
501
493
484
484
488
485
487
489
488
489
491
491
495
491
493
478
460
509
579
743
947
874
629
514
517
515
512
510
506
507
501
505
508
500
501
504
505
500
504
502
502
503
505
508
512
513
514
527
527
529
531
533
539
543
542
536
535
521
516
509
496
492
493
495
493
491
488
492
495
493
493
493
498
496
495
497
496
496
503
505
505
507
507
507
508
508
505
505
508
506
507
513
516
529
523
523
528
515
504
503
505
493
491
498
497
495
496
500
497
503
506
507
503
507
490
472
519
596
781
968
876
626
521
522
531
522
520
520
513
519
514
512
514
510
510
508
510
510
511
510
510
512
516
518
521
525
531
534
536
540
543
542
545
546
540
536
523
514
510
504
501
498
490
487
495
493
492
494
496
491
496
495
494
497
500
502
505
501
502
501
502
501
504
500
502
504
501
498
500
501
503
514
517
526
523
518
532
526
511
502
506
500
493
495
494
500
501
502
500
499
499
508
507
505
505
468
487
541
649
868
954
756
566
528
526
534
531
524
524
523
517
513
519
515
516
514
512
514
518
517
516
518
520
519
520
524
528
529
534
543
541
541
547
548
544
541
541
530
522
516
510
504
495
497
498
495
496
495
489
492
499
498
500
500
499
502
502
503
505
505
502
503
505
503
503
502
505
504
506
506
504
507
507
519
534
520
519
526
513
504
501
496
494
489
498
496
497
501
499
495
496
504
502
506
507
477
468
524
601
761
934
833
618
539
528
516
517
511
514
514
510
510
506
503
504
503
504
508
505
503
503
506
507
512
515
513
519
519
523
528
528
533
535
534
531
533
529
519
510
503
500
496
491
491
492
485
485
489
490
492
490
493
494
496
492
496
497
495
495
495
494
498
498
497
501
499
498
500
499
498
500
495
497
502
503
515
517
505
518
513
500
492
494
486
482
489
487
486
491
489
492
490
493
494
493
497
486
454
499
562
697
906
882
662
530
519
507
508
510
501
497
501
500
501
499
501
500
501
498
504
500
499
503
507
507
504
513
512
521
522
526
529
533
538
537
541
536
534
528
510
506
501
496
498
494
491
493
492
490
493
494
495
492
490
497
497
497
498
497
499
502
503
503
504
506
504
503
507
505
502
498
498
499
503
499
507
514
516
530
517
519
525
511
500
503
496
492
489
496
492
496
497
497
505
502
503
505
507
502
476
475
526
612
806
969
832
596
524
525
526
526
522
519
516
515
512
511
507
510
510
507
506
505
513
510
513
517
513
517
523
521
530
534
539
540
540
544
548
549
550
544
530
522
515
508
500
499
498
493
492
490
491
495
493
491
491
496
498
501
498
501
506
502
504
506
501
504
504
504
504
501
501
498
500
501
499
501
499
500
503
508
519
521
511
521
512
500
500
501
492
492
498
496
490
495
502
500
499
502
505
507
504
497
463
498
551
679
906
941
721
544
521
521
523
514
506
509
508
508
511
506
505
510
511
508
508
508
508
509
506
509
516
516
514
517
522
532
540
536
539
548
544
544
545
537
526
515
505
499
494
487
485
491
492
493
491
492
492
491
491
496
496
493
496
496
498
501
502
505
506
502
500
511
503
502
503
505
498
501
504
501
501
499
503
520
525
509
526
527
513
507
506
499
492
492
503
502
496
499
503
504
508
511
508
511
506
475
493
546
655
862
948
752
573
532
528
527
529
524
521
517
521
522
516
516
514
514
515
514
516
515
520
523
522
526
524
529
532
532
537
544
543
549
550
549
551
546
539
536
526
518
515
510
508
508
501
503
504
506
500
501
498
503
504
501
505
512
505
508
514
509
506
511
511
509
508
507
507
504
502
505
510
509
522
527
517
521
528
514
508
506
501
493
490
497
494
495
500
499
503
501
502
507
506
505
479
465
522
597
744
928
834
612
540
524
509
513
510
506
506
504
499
500
499
495
498
496
498
499
500
504
501
501
505
505
505
513
516
518
522
520
517
520
522
528
527
519
513
507
496
494
487
483
484
485
482
482
482
480
485
489
490
492
493
491
491
495
495
497
495
496
497
493
493
496
491
490
497
493
491
492
490
490
492
496
497
511
515
500
511
505
494
491
491
489
481
479
489
488
486
487
492
489
489
493
490
494
490
456
495
545
659
876
924
716
542
517
513
519
512
509
508
501
504
508
505
501
507
506
502
503
503
505
508
508
507
515
512
515
520
524
534
537
534
538
543
541
543
543
530
527
516
507
504
497
489
493
493
489
494
493
490
494
497
496
494
497
498
499
499
502
504
504
501
509
510
507
511
509
507
510
512
510
504
503
510
518
528
535
522
526
526
509
504
506
498
494
497
498
495
497
496
500
501
501
502
509
509
500
466
488
539
649
869
956
769
561
519
524
525
519
517
514
512
510
510
509
509
507
510
507
505
509
508
503
508
513
514
519
522
522
529
537
536
538
542
541
548
545
538
532
519
512
508
500
494
496
490
490
490
487
492
494
493
491
495
494
491
499
503
499
498
501
501
504
504
501
503
503
506
503
502
503
500
500
503
506
509
521
524
514
527
521
504
502
505
496
491
490
496
501
501
500
505
503
503
507
508
511
504
467
482
529
628
836
955
792
583
524
521
526
517
515
516
512
508
511
509
502
508
506
506
506
509
510
510
509
512
515
515
520
525
526
533
536
533
534
542
543
545
542
533
527
518
510
504
499
492
493
489
489
493
491
490
495
495
500
498
496
501
503
502
501
502
506
503
504
502
501
507
509
508
508
503
505
507
507
509
520
527
518
523
525
512
504
505
504
500
499
506
506
503
503
504
506
507
504
505
512
511
483
477
533
613
774
943
825
610
543
528
517
517
521
519
512
509
512
510
511
514
516
519
516
508
516
516
514
515
515
517
523
525
523
531
537
541
544
543
544
544
542
531
526
519
509
503
497
494
491
489
492
495
494
491
495
498
497
497
497
498
502
496
498
502
499
499
506
501
502
503
499
503
501
494
500
497
498
503
509
515
509
507
515
504
497
496
496
488
480
490
495
491
496
495
496
499
496
497
494
499
488
460
505
579
722
916
869
646
532
518
511
510
509
506
502
503
501
503
506
502
501
504
501
501
503
501
503
504
503
507
509
511
518
523
524
530
529
531
533
534
529
522
519
504
498
495
488
486
484
487
490
487
485
489
491
491
489
495
493
496
496
494
496
497
502
504
502
504
507
503
503
506
505
500
506
506
502
501
500
499
507
509
508
520
527
513
520
516
507
499
497
492
490
485
489
495
493
493
497
496
495
504
503
503
503
473
485
532
623
833
949
781
573
520
521
526
521
514
513
514
511
512
510
509
510
508
511
508
507
509
503
506
510
515
515
516
524
523
532
538
539
542
540
545
548
546
535
527
518
510
502
498
491
493
491
487
489
492
492
496
495
494
501
498
498
500
496
501
501
501
501
501
501
500
505
509
507
506
504
501
504
504
503
501
498
506
505
506
506
522
522
511
528
520
507
503
507
497
491
497
503
494
495
505
502
500
502
499
505
510
505
475
487
533
631
845
963
792
577
522
523
526
518
515
517
515
512
514
509
508
511
508
513
513
505
512
511
510
510
512
520
523
525
531
537
537
542
549
550
549
553
545
537
529
512
507
506
498
495
495
494
490
491
494
494
496
496
498
500
497
500
500
501
509
510
506
508
511
512
508
507
510
509
507
507
510
506
501
511
510
506
513
508
510
521
527
529
520
530
524
511
503
507
502
491
496
501
497
500
501
501
503
505
502
507
509
496
467
490
537
642
864
947
757
560
518
521
521
513
510
506
507
506
502
500
501
503
505
504
502
504
505
505
508
510
511
513
514
516
526
527
525
535
543
537
537
539
534
533
523
510
502
495
491
488
485
484
484
482
488
487
483
487
487
486
489
491
490
494
498
493
496
499
497
497
502
498
499
498
500
502
499
500
505
512
510
518
516
511
522
514
509
502
498
491
491
496
493
492
493
493
496
496
496
497
493
499
489
456
500
569
697
893
886
660
539
522
510
509
512
503
503
505
508
508
506
504
506
508
503
505
508
506
510
507
513
514
517
520
522
528
534
536
533
539
542
542
540
535
530
522
515
502
496
497
496
490
495
497
489
491
493
493
496
491
494
494
492
492
496
497
502
503
499
503
501
499
496
494
494
499
495
492
493
490
488
496
505
517
509
501
513
506
492
490
490
480
482
488
483
484
487
488
495
493
494
495
496
497
474
460
512
584
748
937
853
619
518
521
520
516
514
509
509
508
509
509
504
505
503
503
500
504
504
507
508
509
511
511
515
519
524
527
530
537
538
537
543
542
539
543
533
521
517
504
499
497
494
494
494
492
495
495
494
492
496
498
503
503
504
506
507
503
505
508
504
506
506
503
501
499
497
504
506
503
504
508
508
515
530
519
516
528
510
501
500
494
487
488
496
495
492
495
499
500
498
500
498
501
502
473
463
515
586
769
964
864
622
516
516
523
520
513
512
511
504
504
505
502
504
508
510
510
509
507
508
510
509
515
515
519
522
525
524
533
539
543
550
547
548
553
543
531
522
515
507
501
493
493
492
491
496
496
489
491
498
495
493
497
495
497
497
499
497
497
500
500
503
504
504
503
503
501
495
499
499
505
505
508
519
510
510
518
503
495
500
494
481
479
488
488
488
496
494
488
488
494
495
495
495
474
463
511
582
762
950
853
613
515
510
516
517
509
508
502
502
508
508
504
505
503
502
503
506
504
507
510
512
515
516
517
522
526
535
536
538
545
547
546
548
547
535
529
521
512
505
505
496
492
495
500
496
496
500
501
500
501
505
505
510
513
511
510
512
513
513
518
519
519
519
516
519
520
521
525
539
543
529
538
536
527
524
524
515
505
511
520
519
515
520
519
513
522
522
519
525
522
487
498
554
647
830
961
802
608
551
540
534
535
531
531
526
524
527
526
526
524
522
524
521
514
520
522
519
521
518
522
524
524
535
539
539
540
543
545
545
546
544
532
527
522
509
507
502
497
495
493
497
495
496
491
491
494
494
495
496
499
499
496
495
499
498
504
506
502
501
501
498
500
497
498
502
503
518
517
505
517
513
498
495
493
480
480
489
486
488
486
486
487
484
490
487
489
493
485
450
490
550
681
888
894
668
521
510
504
504
504
499
494
501
501
495
497
496
496
497
495
493
495
496
495
494
496
497
500
506
510
515
520
520
526
527
529
529
531
526
516
505
499
496
490
483
483
481
481
479
481
484
484
481
487
487
486
487
485
482
489
495
493
495
493
491
495
491
489
493
490
489
489
493
498
514
502
499
517
497
479
486
485
474
472
474
476
480
479
480
482
482
486
488
488
499
483
452
504
567
728
942
897
644
515
515
513
513
507
504
509
506
503
509
504
498
504
502
504
503
502
504
505
507
511
512
510
518
529
529
531
535
535
540
548
546
547
539
527
514
507
499
496
492
488
492
484
483
488
490
489
491
492
490
494
494
495
499
497
496
502
502
503
503
502
502
505
502
504
502
504
507
515
523
513
517
518
507
498
499
492
484
484
494
491
485
490
489
492
498
500
500
501
501
472
471
518
602
802
960
820
585
510
509
514
511
505
505
502
498
501
501
500
501
498
500
500
501
501
501
501
509
511
510
519
519
519
522
525
528
532
537
536
538
533
528
516
504
504
498
487
487
488
483
486
491
487
487
493
493
490
495
492
496
498
503
507
506
506
503
505
504
507
508
503
508
505
504
508
509
524
530
512
530
528
506
503
508
494
488
493
496
493
497
496
500
502
503
507
512
510
505
475
492
548
661
859
949
755
569
538
531
524
532
527
521
519
519
516
515
514
514
517
513
511
513
511
514
522
519
519
525
524
530
531
533
539
543
545
542
544
545
541
538
534
520
511
505
502
504
497
496
497
497
495
496
494
497
499
498
503
503
505
508
506
504
505
506
507
507
507
506
507
507
506
520
527
514
520
521
506
502
502
496
491
486
487
490
489
490
495
494
499
503
498
500
501
468
472
527
620
795
938
780
576
526
514
501
505
509
508
503
501
504
502
500
502
498
498
499
496
496
498
498
505
509
504
510
514
516
520
523
525
530
530
525
530
524
516
512
508
501
493
490
485
486
482
486
487
480
489
487
486
488
487
491
496
498
494
497
500
501
503
498
496
499
501
496
497
496
495
499
503
503
514
522
508
521
511
500
498
499
489
486
488
489
490
486
486
493
496
498
499
499
500
501
462
489
546
655
868
931
724
543
519
514
517
512
509
511
509
506
510
510
509
506
505
506
505
506
513
513
513
516
519
518
519
528
532
534
542
545
545
550
546
550
548
541
535
524
516
510
508
501
502
504
501
501
502
503
505
504
503
509
508
509
510
513
511
516
516
513
514
512
515
514
514
511
515
514
508
510
509
517
519
529
527
522
529
521
513
506
501
497
491
497
504
500
501
505
505
505
503
505
509
509
500
466
500
556
696
924
943
714
541
526
530
529
520
522
515
513
513
513
511
513
510
510
513
509
512
514
509
512
516
516
519
523
523
525
533
535
541
549
551
552
552
544
535
525
512
509
503
492
492
490
488
490
491
494
498
499
497
499
499
495
500
502
498
500
496
500
503
496
497
500
498
498
499
499
496
496
497
498
498
498
504
507
519
518
505
521
520
506
499
504
496
492
496
498
499
500
500
501
505
504
505
509
514
505
471
494
544
670
890
953
753
562
530
532
532
523
520
524
524
518
517
520
518
520
520
515
513
517
514
513
519
515
514
525
529
527
533
538
543
545
546
547
549
554
547
536
528
525
518
511
501
498
492
496
496
493
497
497
495
498
497
496
498
499
499
503
507
507
509
505
505
508
510
505
505
503
502
506
502
498
505
511
524
522
515
524
515
504
502
504
490
489
496
496
492
492
497
500
501
500
502
505
501
487
466
510
574
709
903
884
657
535
524
513
513
515
510
508
505
503
502
506
504
502
503
500
499
504
502
502
503
503
506
509
515
520
521
522
522
531
534
531
538
532
530
529
514
509
507
498
492
489
489
488
487
485
485
489
483
485
490
488
491
491
492
496
495
493
496
495
494
497
496
495
494
493
498
499
493
499
502
505
521
511
509
519
506
494
496
492
483
481
494
492
491
494
494
499
497
492
498
505
503
475
463
514
588
742
927
844
618
528
519
510
511
508
508
509
504
500
502
502
501
501
496
499
505
504
500
504
506
506
509
511
512
517
524
528
529
529
531
538
536
536
535
528
517
508
503
493
494
492
489
493
488
488
488
489
495
498
493
498
502
501
504
504
505
510
513
506
506
510
510
507
510
506
506
510
505
507
506
506
511
514
522
531
520
524
521
510
506
509
497
492
494
498
495
497
498
502
504
497
502
503
501
501
475
488
536
638
847
962
787
571
517
521
524
517
511
511
512
511
510
512
507
509
509
507
506
509
504
503
508
510
510
509
517
526
528
529
537
540
542
544
549
547
545
538
527
520
509
501
492
496
493
489
491
487
489
490
488
490
489
491
496
492
489
492
493
494
499
496
497
499
494
494
498
497
497
493
490
495
497
491
498
500
519
521
512
518
512
501
494
495
487
481
490
491
488
490
489
491
501
502
502
505
503
487
460
507
566
733
949
898
655
515
509
517
518
513
508
508
508
511
506
501
509
506
501
501
501
500
504
501
503
510
504
509
513
516
517
528
531
532
539
538
539
537
533
531
519
504
501
493
486
485
483
485
486
485
485
488
484
487
489
491
497
495
491
496
499
496
494
501
495
492
496
494
495
494
490
497
504
505
509
521
511
516
519
511
499
499
495
486
484
494
494
498
500
499
498
499
502
504
499
503
474
473
517
597
800
968
835
589
513
514
525
521
513
508
509
508
507
509
505
505
504
502
500
508
505
506
512
504
508
510
515
519
521
529
531
536
540
542
541
541
542
536
531
524
509
502
499
490
494
491
491
495
490
488
492
495
492
497
499
502
502
504
502
502
503
506
506
504
504
503
502
499
504
511
516
518
533
520
519
525
517
510
503
501
492
492
498
501
503
507
509
507
509
511
510
513
511
476
478
532
616
824
976
825
599
534
528
530
532
519
516
521
520
514
514
515
514
511
509
512
511
512
516
517
516
516
519
522
529
531
534
541
540
542
550
552
550
553
548
541
533
526
520
510
505
506
502
496
503
500
499
505
504
508
509
507
509
513
511
515
518
513
517
517
515
516
517
516
521
539
531
518
533
529
517
515
511
503
502
498
501
501
501
507
514
511
510
511
516
519
498
462
507
579
716
912
907
680
559
545
529
519
520
523
517
517
513
511
511
511
516
511
503
507
506
504
507
512
510
510
508
514
512
512
521
521
520
521
522
517
524
518
513
508
500
495
491
484
482
480
478
477
483
479
478
482
479
484
487
487
488
491
490
487
489
483
487
490
487
487
487
487
493
506
500
493
503
499
489
484
483
475
471
476
481
480
478
481
476
477
484
488
490
486
460
447
506
582
746
926
816
591
510
502
493
500
497
495
493
490
489
494
492
485
489
487
491
493
494
492
494
495
502
507
504
509
512
514
520
525
524
527
532
531
531
526
517
511
507
501
496
492
493
491
485
488
494
491
489
494
494
496
496
497
502
508
505
504
505
505
507
505
504
507
508
510
522
524
511
521
522
508
498
502
497
493
489
493
498
494
492
497
498
502
502
499
498
499
463
490
545
665
887
948
737
548
520
519
517
513
507
506
510
504
502
505
504
504
505
503
501
504
505
508
509
508
511
513
514
521
526
533
534
532
534
550
549
544
539
534
527
521
510
503
499
498
503
502
499
500
509
506
505
512
514
512
514
515
515
509
515
520
520
517
522
522
518
521
521
521
531
545
534
536
537
527
515
517
516
507
505
512
516
511
512
517
516
510
521
522
521
521
491
489
538
614
812
983
852
618
542
537
540
539
534
530
528
524
527
526
520
522
517
518
517
515
512
521
517
515
513
516
522
526
527
531
535
536
535
541
542
542
540
537
521
513
503
496
490
480
480
482
480
479
477
481
478
480
480
482
482
480
485
484
484
487
483
484
490
488
487
492
489
489
497
509
498
501
507
495
483
486
485
479
478
477
484
480
479
485
488
485
485
486
487
485
465
445
486
556
736
940
858
620
504
500
506
507
497
500
499
497
496
496
500
504
501
501
501
503
501
505
504
506
509
506
511
516
518
519
528
531
530
534
538
536
538
530
520
513
505
498
488
482
486
479
474
480
483
481
484
483
480
483
483
486
488
488
488
486
487
486
489
493
496
492
488
494
502
512
503
502
509
503
493
486
488
481
472
481
484
480
481
489
487
488
488
493
496
493
468
461
498
571
766
959
842
597
514
514
511
509
508
511
503
506
505
503
505
504
504
508
514
511
510
513
512
517
512
513
522
522
527
532
533
533
538
547
550
552
547
542
535
522
513
506
505
493
494
496
491
495
496
498
504
501
502
511
506
507
507
506
506
511
508
510
509
505
505
510
514
515
522
527
522
525
526
522
509
508
505
499
494
502
503
498
507
510
506
506
509
504
510
510
471
487
527
640
866
949
752
556
527
523
518
518
514
511
509
511
507
505
509
506
503
505
503
505
512
512
507
514
513
512
516
519
522
528
530
528
530
534
535
539
534
522
519
508
500
498
493
488
487
485
488
486
485
488
492
495
496
493
492
498
500
495
495
496
496
496
495
492
497
498
501
511
511
501
516
505
497
493
493
486
481
486
485
483
485
490
491
492
492
495
495
495
478
452
496
571
736
933
847
618
522
515
497
501
504
498
502
497
495
495
497
493
497
497
494
499
496
497
498
499
503
507
504
510
519
516
515
522
525
525
528
528
524
519
510
505
502
497
485
487
484
480
483
480
486
488
487
492
489
489
491
493
489
495
498
494
497
497
496
500
499
506
518
509
501
516
508
496
492
493
485
483
481
485
489
485
487
489
491
492
493
491
493
483
448
487
550
689
900
893
671
535
518
502
505
513
503
500
498
502
506
505
500
508
509
503
501
506
507
512
508
508
514
517
516
519
526
529
534
536
535
542
543
540
536
525
520
513
504
500
496
488
497
497
490
495
498
494
495
497
496
502
503
499
500
497
500
502
506
500
501
500
499
509
511
524
520
509
520
513
503
497
501
494
489
493
493
492
494
492
496
500
495
499
501
499
478
464
508
583
767
950
848
619
525
521
516
516
514
514
511
512
509
506
510
513
511
511
510
512
511
510
513
513
515
519
520
523
523
530
528
535
543
538
546
547
541
536
527
516
512
508
498
498
499
491
496
498
491
497
497
495
501
500
502
506
505
504
506
508
504
508
508
509
510
507
508
513
512
516
528
515
516
527
511
502
503
497
493
488
500
501
498
495
501
498
500
504
503
503
502
476
478
524
613
818
965
804
579
521
522
515
515
517
513
509
509
508
505
507
507
503
503
507
509
507
510
508
509
514
516
515
518
522
524
530
530
530
536
541
538
537
531
519
517
506
495
497
493
488
490
491
489
497
495
494
499
501
501
500
500
497
502
501
503
504
500
501
502
502
503
503
500
505
506
502
518
517
506
520
514
501
495
494
486
484
492
493
494
496
492
497
497
498
502
499
501
490
450
492
547
676
902
910
687
534
520
513
514
507
506
508
505
506
507
505
500
504
508
504
503
507
505
506
509
512
516
516
519
526
526
530
541
542
538
548
545
543
542
528
526
517
507
500
502
495
492
494
494
496
499
495
496
501
498
500
504
501
504
506
505
508
508
507
508
510
511
514
511
511
515
521
528
519
518
529
522
511
504
501
493
490
501
504
504
506
502
504
511
509
508
509
509
488
470
517
592
742
929
850
631
545
529
515
517
518
515
509
514
511
505
508
506
507
514
512
507
512
513
512
514
512
515
519
519
526
530
530
531
534
538
540
540
537
529
523
514
509
507
497
495
493
491
489
489
490
497
496
491
498
494
491
492
496
496
500
497
498
499
494
492
498
496
496
497
497
496
502
502
503
516
511
503
518
509
499
494
493
490
485
484
488
489
489
494
490
485
494
491
491
495
483
450
491
552
676
889
891
675
536
518
511
511
510
506
508
504
503
504
498
497
505
505
503
501
499
504
503
504
507
508
508
511
517
518
522
529
528
531
534
535
536
526
519
517
508
499
494
490
488
491
485
488
493
495
493
496
496
491
497
498
495
498
498
500
502
501
503
501
497
506
504
499
500
501
500
501
501
504
507
509
517
526
509
516
521
508
503
507
496
489
497
498
496
502
497
501
502
500
501
506
507
497
467
496
548
669
891
943
738
553
527
529
526
521
521
518
520
516
518
518
513
512
516
514
507
513
511
510
513
515
511
516
519
519
524
526
532
539
542
544
546
541
539
532
520
512
504
493
491
490
486
486
493
489
488
489
485
492
496
491
493
492
492
498
497
499
501
503
501
502
500
502
501
502
501
505
504
503
503
498
500
504
505
508
517
527
522
517
526
518
509
503
500
492
489
496
499
497
501
502
499
501
504
504
508
507
486
467
508
566
735
940
877
648
528
521
525
519
512
514
509
508
508
509
501
504
504
503
504
503
506
507
507
503
510
513
514
520
522
526
527
530
534
540
544
548
547
539
532
524
518
510
502
494
491
493
495
494
490
490
497
497
496
499
498
496
501
501
501
507
505
503
503
504
507
508
506
509
510
508
507
508
509
504
509
513
514
522
524
514
527
521
510
509
508
503
499
498
504
505
503
505
506
502
509
510
507
508
500
468
503
557
666
868
915
711
566
534
526
520
519
516
515
512
514
519
513
516
513
511
519
516
513
517
520
518
520
519
524
530
532
536
541
545
543
550
547
550
552
543
540
532
522
517
513
506
506
502
500
502
501
497
498
499
498
501
500
499
505
503
497
505
508
504
506
506
503
503
502
499
501
501
500
498
498
497
502
507
516
510
511
510
504
496
494
489
486
482
491
483
485
491
487
488
489
490
494
498
488
455
481
534
644
837
910
716
547
515
510
500
504
503
502
500
499
501
498
500
502
501
501
502
504
507
501
502
507
508
515
516
517
524
527
528
533
536
532
531
534
528
521
517
501
500
495
483
483
482
481
485
480
481
485
484
485
486
486
483
487
493
491
494
497
492
489
493
492
491
493
494
494
490
492
493
492
493
497
491
497
504
509
512
502
514
510
496
490
493
484
478
486
493
488
493
494
495
497
498
497
504
504
486
464
502
556
696
906
884
669
529
511
514
510
505
506
505
502
503
498
498
501
497
497
498
498
500
500
499
503
506
503
510
511
513
521
527
529
527
534
538
541
538
536
531
523
509
504
499
491
494
492
489
489
487
488
497
498
496
500
493
499
503
501
501
502
498
498
503
496
496
498
499
503
496
494
500
498
494
493
495
494
497
503
509
520
503
512
523
509
496
503
501
489
494
493
496
501
501
500
506
502
505
506
513
515
478
489
541
640
837
958
791
579
528
530
525
526
526
521
525
522
516
519
518
513
515
516
515
517
517
513
518
515
516
520
528
531
529
537
541
546
542
544
549
544
546
538
524
517
511
502
499
495
491
490
490
491
494
492
494
493
495
493
494
496
496
498
496
495
501
502
498
500
502
502
506
503
504
504
504
503
511
526
522
516
520
515
507
500
504
494
490
494
498
496
498
499
494
501
504
505
504
507
488
469
514
579
727
918
865
647
536
521
521
521
516
515
512
511
508
509
508
511
505
503
505
506
503
506
503
501
507
511
514
514
518
522
526
527
533
536
533
537
536
529
522
512
501
499
494
483
487
489
482
484
484
488
492
487
485
492
486
491
494
492
493
497
496
496
497
496
498
501
496
497
495
495
500
496
494
498
502
502
522
520
500
516
511
494
493
496
483
480
486
490
489
488
490
493
493
495
497
496
496
484
462
513
582
735
939
865
626
520
520
518
520
515
508
505
508
508
508
506
503
507
504
503
507
509
508
511
512
511
515
522
521
529
533
533
543
545
543
548
551
550
546
534
526
522
511
507
501
498
496
497
496
494
499
500
499
502
502
499
505
505
505
507
504
507
507
506
509
507
506
501
504
508
510
504
502
507
503
503
509
522
525
513
517
514
505
496
497
495
485
488
497
493
492
498
496
501
501
502
504
508
497
460
490
539
657
879
931
732
547
512
521
521
512
507
503
502
504
502
500
503
504
503
504
508
503
502
503
507
510
511
513
517
517
526
530
530
541
549
546
546
549
540
537
528
513
508
499
490
495
490
487
489
491
494
495
491
492
495
494
493
498
499
497
500
496
497
501
501
505
508
502
502
511
503
502
506
502
504
507
507
508
523
524
511
525
518
503
500
509
499
493
491
497
493
495
501
497
497
499
499
505
514
498
463
503
553
692
928
950
720
538
520
531
528
514
521
522
517
513
512
511
509
511
509
511
511
509
513
511
508
515
517
515
523
527
528
539
541
545
548
548
549
555
551
537
528
520
509
503
496
498
500
495
496
497
492
495
496
497
498
496
496
497
501
499
504
507
502
501
500
506
506
507
503
507
505
501
502
502
496
501
512
510
527
524
512
529
519
501
500
504
493
487
491
492
500
497
498
502
502
505
509
507
511
490
472
521
597
781
962
861
626
530
530
533
531
522
518
524
521
519
520
518
513
517
514
512
517
520
521
516
517
520
526
523
524
532
537
538
543
545
544
548
549
546
543
532
519
517
512
508
507
503
501
502
499
501
501
499
507
508
509
509
512
510
513
514
512
513
513
510
512
511
507
508
508
509
512
508
508
509
508
507
512
523
519
514
520
509
496
500
498
491
488
496
498
490
493
492
493
498
499
497
500
498
473
465
512
587
768
945
827
600
518
514
511
511
509
505
499
503
501
497
502
505
500
504
503
499
505
505
505
506
511
514
514
521
523
530
530
532
540
543
542
544
545
542
536
526
514
505
502
494
493
490
492
499
495
493
503
500
499
501
501
499
504
505
501
504
503
501
511
511
507
509
507
507
509
507
509
511
517
526
513
518
520
508
506
508
496
489
492
493
497
497
495
495
499
499
498
497
502
492
455
492
555
676
860
897
688
550
529
513
503
510
515
508
508
512
510
513
512
506
509
509
502
507
509
503
509
507
509
513
508
515
524
524
523
529
527
528
534
531
527
524
517
506
501
497
492
491
488
488
493
491
492
495
491
491
491
489
493
494
494
497
496
493
494
495
494
501
496
492
494
495
492
496
496
507
520
505
502
516
505
498
497
486
482
487
487
490
493
486
488
494
491
486
494
496
489
452
468
526
627
810
912
742
557
517
512
503
508
505
501
500
503
504
509
504
500
507
504
507
504
503
504
506
507
507
508
505
513
520
524
528
533
530
536
539
534
532
529
516
509
505
496
494
491
486
492
489
485
491
490
491
494
495
490
495
496
493
498
500
495
500
501
505
501
497
501
503
498
501
503
499
498
505
507
519
519
507
524
519
500
497
500
490
490
491
492
493
496
493
497
499
492
496
505
507
492
463
499
558
698
910
891
661
527
521
517
514
511
511
514
514
515
512
510
509
507
506
506
509
508
506
509
510
506
513
523
519
522
529
533
539
545
544
549
553
549
548
544
534
526
518
518
512
509
507
509
504
501
512
507
508
505
504
508
509
506
512
518
513
513
516
513
520
514
512
511
509
508
509
507
502
505
514
511
514
527
525
514
527
521
507
499
500
498
491
490
495
496
497
506
504
505
505
503
505
510
497
464
503
553
687
917
921
688
535
521
521
520
515
513
511
508
509
506
504
501
503
503
502
503
506
509
506
507
508
513
513
520
521
524
535
532
534
542
542
546
549
545
536
526
521
510
504
497
494
496
495
494
493
491
498
496
495
498
502
501
502
504
503
507
508
507
505
508
509
507
506
503
509
507
502
506
503
507
505
504
505
505
503
511
510
518
520
515
517
518
508
501
500
492
488
498
500
493
500
496
494
498
499
499
504
506
481
466
509
573
748
943
860
627
518
513
518
518
508
508
508
504
510
509
507
512
508
505
510
507
509
510
509
511
515
517
521
527
529
533
535
541
548
548
549
549
550
547
543
530
522
516
507
502
506
501
500
502
497
498
506
501
500
504
503
498
502
501
498
505
506
512
508
507
512
506
508
509
512
508
507
507
507
510
513
513
527
525
508
527
521
506
503
501
492
489
494
494
497
491
491
500
503
501
502
502
501
488
461
505
570
706
902
858
638
535
520
508
512
512
504
503
503
503
498
505
503
501
503
501
503
503
501
505
505
507
510
513
512
517
519
523
527
529
530
532
533
529
526
524
521
511
501
497
498
495
490
491
485
489
492
487
483
487
488
491
493
493
494
496
493
495
497
493
495
497
493
495
493
492
494
494
493
497
494
493
500
507
515
504
513
510
500
492
492
489
482
489
495
488
492
492
491
497
498
496
498
499
488
453
483
532
645
854
907
715
546
512
513
507
504
507
502
500
506
499
496
500
499
497
505
500
500
503
499
499
507
507
506
512
512
515
517
524
531
534
535
539
544
538
537
528
510
506
502
496
493
493
486
491
499
497
497
498
497
500
501
501
504
503
503
510
506
502
507
505
512
514
505
507
511
505
505
506
501
503
508
503
505
509
513
523
517
520
522
509
501
506
497
488
494
500
496
496
497
496
500
499
500
508
504
497
468
481
531
638
846
946
778
567
518
520
521
517
516
512
513
511
506
510
510
506
507
506
507
507
504
506
505
507
509
515
518
519
525
527
536
537
539
544
547
542
544
541
527
518
510
501
498
501
494
490
489
490
491
491
492
493
495
493
493
495
496
500
503
505
506
503
500
504
506
503
507
509
505
505
505
503
501
500
505
509
509
509
514
521
529
519
521
522
514
502
502
499
488
492
499
497
496
502
501
503
505
502
505
507
500
467
490
533
644
869
941
744
555
515
519
523
513
508
511
512
506
507
504
506
508
501
508
509
504
508
506
504
509
507
507
515
518
521
526
530
534
539
541
547
547
543
539
532
516
510
507
495
495
494
487
493
492
489
495
497
494
498
497
496
501
501
498
506
503
499
503
505
506
514
511
509
513
511
509
511
507
513
513
509
506
512
513
522
533
525
528
539
525
517
517
514
505
504
503
510
508
504
507
511
512
517
519
517
518
493
488
531
615
794
950
812
608
545
533
524
531
529
526
522
521
517
520
518
514
519
515
513
517
517
515
515
517
522
524
522
524
531
532
536
541
541
540
546
545
543
537
525
518
516
505
498
490
492
494
494
493
491
490
494
496
494
494
497
492
499
502
494
501
504
497
499
496
496
499
497
487
491
498
490
494
497
495
512
512
499
511
507
492
490
488
481
478
482
482
481
484
487
488
490
490
495
491
492
483
451
483
542
654
849
883
673
533
512
497
496
505
497
498
500
492
490
498
494
496
496
495
493
497
502
501
503
502
506
508
510
516
520
522
528
527
529
532
529
530
533
525
517
512
502
496
493
487
486
486
484
482
484
486
483
486
489
489
493
489
492
497
491
495
498
493
496
499
497
498
496
494
496
496
495
497
497
495
499
495
500
510
516
504
509
516
502
496
496
488
488
489
492
496
490
492
498
493
496
497
500
504
501
464
476
524
611
817
940
776
575
517
514
514
513
509
510
506
505
505
503
500
507
506
506
509
504
502
510
508
508
513
513
515
523
522
527
536
542
543
545
550
550
551
542
536
528
514
511
505
497
496
494
497
503
498
497
500
500
500
503
501
503
506
506
500
508
509
507
507
510
511
510
505
507
504
501
503
505
500
505
502
497
502
503
503
514
527
508
518
515
502
503
504
493
492
495
498
497
493
495
500
505
500
498
506
505
506
472
484
531
628
839
950
779
569
523
529
533
524
512
521
520
517
517
518
515
514
518
511
510
516
511
510
519
518
520
520
526
531
529
534
544
547
547
552
555
552
551
551
542
533
522
515
515
510
504
503
499
502
503
498
496
499
502
504
503
502
503
506
504
507
506
505
506
507
504
504
507
502
498
501
500
500
499
501
500
497
497
500
498
498
499
504
507
518
508
505
520
513
502
501
496
490
488
491
491
499
495
493
500
496
495
505
504
505
495
466
505
563
715
932
885
653
529
517
514
515
510
509
515
513
509
514
507
506
507
509
512
511
507
510
513
513
511
516
518
520
530
533
534
542
545
547
550
548
553
550
535
527
521
511
505
501
494
495
492
490
488
490
486
491
489
487
491
487
486
496
498
491
498
497
492
492
496
496
495
496
493
497
494
492
494
500
497
500
498
497
502
515
507
509
518
503
496
493
494
485
481
491
496
490
495
496
492
497
491
492
497
499
490
457
492
544
670
877
888
673
538
515
506
504
502
506
501
501
502
502
502
505
507
505
512
504
505
506
505
506
506
509
514
513
512
522
529
530
535
540
537
542
548
540
532
522
514
508
501
494
495
491
487
494
490
489
491
487
490
494
494
493
496
495
493
498
501
503
502
499
503
503
497
499
500
501
502
499
501
503
498
497
496
498
495
502
505
507
523
507
508
521
510
502
504
496
488
496
493
493
495
494
496
500
498
503
503
502
507
496
462
496
555
689
906
905
686
541
525
514
517
516
508
511
514
510
511
512
514
513
513
514
512
515
510
514
514
514
523
524
526
529
535
539
546
548
553
557
556
555
553
543
533
522
511
510
503
495
499
499
494
497
499
498
496
497
496
497
495
497
500
502
504
507
504
500
510
509
505
505
505
508
504
500
501
505
502
502
506
502
503
503
503
504
512
510
515
527
510
517
521
509
501
506
500
495
497
497
503
500
497
506
504
506
508
508
506
505
481
479
528
605
792
962
836
604
523
523
525
521
511
514
515
510
510
515
511
510
510
508
512
512
508
510
511
511
515
519
515
520
528
535
535
540
543
545
548
551
552
542
534
529
512
501
496
491
490
493
492
491
489
491
491
492
491
488
492
490
492
495
490
493
502
497
497
500
497
499
503
497
502
499
496
495
498
498
497
498
498
506
505
502
508
514
522
523
510
523
518
503
503
504
491
494
502
500
498
506
503
504
505
505
506
508
509
501
468
493
542
655
867
930
739
557
520
523
522
522
514
512
516
512
510
510
512
509
507
506
505
507
510
510
510
511
513
516
517
518
526
529
534
539
540
543
547
543
550
543
525
522
514
501
497
490
489
486
488
484
487
488
481
488
495
491
494
494
496
500
497
498
500
499
496
502
504
497
502
500
502
503
502
499
498
504
505
507
509
524
516
515
523
509
497
502
504
496
490
497
496
498
502
500
503
502
503
508
509
505
484
464
516
585
728
919
859
640
535
527
513
508
514
510
507
506
506
507
508
504
504
501
502
508
508
503
506
509
508
513
515
514
518
523
527
533
536
537
536
540
539
536
524
515
512
500
494
497
487
487
492
489
488
492
487
491
493
493
491
495
496
495
497
495
501
498
500
503
503
499
500
505
499
501
501
495
497
500
496
493
496
500
503
511
520
511
516
516
504
498
497
491
485
488
493
489
491
499
499
500
502
502
500
504
502
468
478
525
608
800
936
788
584
520
519
519
514
509
514
509
507
510
508
511
510
501
506
509
504
511
510
509
514
512
514
520
521
521
526
534
534
539
544
546
548
548
544
536
525
515
509
498
495
495
490
491
494
490
491
494
489
497
499
496
500
496
497
497
499
498
497
502
503
501
500
498
502
503
504
502
501
502
503
501
498
500
499
504
502
512
517
507
516
518
504
498
500
495
485
489
496
491
491
497
496
499
498
495
497
503
499
464
476
520
616
824
942
786
570
511
514
516
511
505
503
507
511
505
506
506
503
502
503
501
503
506
504
504
503
505
511
518
519
523
528
532
539
541
536
546
553
549
541
536
518
511
506
492
488
488
486
487
487
488
495
490
490
496
497
494
495
496
495
501
501
502
505
502
504
503
503
499
502
500
500
503
496
498
502
495
498
503
497
499
499
504
509
509
521
514
511
522
510
499
497
498
492
491
501
497
497
499
499
498
504
502
498
509
511
496
472
510
569
724
936
897
670
529
524
531
524
521
519
514
514
513
509
512
510
506
514
510
509
510
510
509
513
512
514
517
516
521
526
530
536
546
549
546
554
556
556
545
534
526
519
506
498
497
493
493
492
494
493
494
494
497
498
494
499
499
496
500
497
499
505
500
498
507
511
503
506
506
505
503
501
499
502
503
502
504
503
508
524
516
515
524
510
504
506
496
493
492
499
495
494
497
499
500
500
512
514
509
514
493
466
515
582
728
915
853
638
539
524
513
518
517
512
513
508
505
511
508
508
511
507
505
509
507
503
509
511
511
515
516
521
523
529
533
535
534
542
541
539
543
536
531
530
518
506
505
494
492
493
488
485
490
491
488
491
491
491
496
495
495
499
496
499
502
498
499
505
502
501
502
497
497
501
503
503
503
498
502
508
513
516
507
516
510
502
492
495
487
478
486
486
481
488
497
496
496
495
496
498
501
492
460
487
539
659
861
904
705
544
518
515
508
509
509
499
501
506
503
499
502
503
503
506
509
508
506
506
509
510
511
519
519
522
527
530
536
539
547
549
552
552
552
543
531
526
520
514
506
506
499
500
500
498
504
508
501
502
505
501
500
504
507
507
509
503
510
513
505
509
507
505
510
510
501
503
506
501
502
505
505
508
512
529
514
513
526
516
501
504
507
496
494
495
501
500
502
502
505
509
506
504
505
511
492
471
519
587
751
947
877
639
527
527
528
526
525
519
519
524
521
517
516
518
512
516
515
508
510
511
510
513
512
514
516
516
521
525
528
536
545
551
551
552
553
549
541
526
521
510
503
503
495
491
497
496
495
499
496
494
501
502
500
502
504
501
502
506
507
511
511
512
513
509
510
515
508
508
512
505
505
507
507
512
523
530
517
527
524
516
506
505
500
495
495
497
497
496
496
497
500
504
508
506
509
509
479
481
523
608
810
948
802
582
511
515
521
514
513
512
512
510
508
506
504
507
502
502
500
499
502
507
507
509
513
510
513
519
521
526
530
533
537
538
542
550
546
539
532
518
510
502
494
490
488
488
485
489
487
487
491
488
485
488
488
491
495
494
497
497
494
502
500
500
497
498
496
498
499
498
497
499
498
498
504
518
519
507
516
516
504
497
498
488
481
486
491
491
494
492
495
497
493
498
499
501
495
464
478
526
620
815
929
760
564
519
516
510
516
511
504
507
509
504
505
505
505
507
507
508
515
510
506
511
512
516
519
518
526
531
526
533
545
544
540
549
549
548
542
528
521
512
506
502
496
492
495
492
490
491
486
487
495
495
494
494
490
496
498
494
495
500
495
495
500
497
501
501
498
501
501
501
505
515
510
502
514
504
496
496
494
486
483
486
491
494
490
490
491
489
495
495
496
496
491
458
486
541
652
851
903
699
546
515
506
499
504
502
497
498
495
497
492
494
498
496
496
497
494
497
503
502
501
501
506
511
511
516
521
525
527
532
532
533
531
537
522
514
509
497
495
491
482
481
482
483
484
485
486
485
487
489
491
493
494
497
500
497
499
498
499
502
499
500
504
500
496
502
498
499
503
499
507
517
508
505
521
505
499
497
492
489
485
484
492
492
490
490
493
494
497
495
495
502
492
458
499
548
674
892
906
689
539
518
513
519
512
505
510
507
506
508
509
508
507
507
507
512
508
511
512
512
516
516
514
524
530
529
537
544
545
550
556
557
559
557
547
538
527
516
515
505
500
502
498
496
497
498
500
502
499
502
503
503
504
504
503
505
505
506
509
508
506
507
506
504
506
504
503
503
505
508
512
525
515
513
526
512
502
502
499
491
486
493
494
491
492
498
497
500
503
501
502
505
498
463
497
542
673
900
922
702
533
510
516
522
511
509
511
505
508
505
507
508
506
503
504
504
505
506
504
502
505
512
515
518
520
525
530
534
539
544
544
548
547
543
539
529
515
507
503
496
494
491
492
493
492
489
495
492
490
497
496
496
499
501
500
503
503
502
505
503
501
503
499
502
503
499
498
502
502
500
495
500
504
505
519
517
509
516
516
507
497
501
493
488
495
499
495
500
501
495
502
502
503
508
507
497
470
490
533
635
851
935
749
556
514
517
516
513
511
506
508
507
503
508
509
505
508
509
504
508
510
509
512
513
512
516
522
520
526
535
534
542
546
543
547
552
550
544
532
523
519
508
501
499
496
496
494
490
496
502
497
496
500
499
499
502
499
504
506
507
509
508
502
505
508
506
508
509
502
503
509
507
509
514
520
515
516
515
507
499
496
494
483
486
493
494
490
494
496
494
500
502
502
502
506
488
462
510
576
710
897
874
653
534
522
512
507
512
508
505
506
510
507
507
507
506
508
506
507
506
505
505
510
510
511
515
517
518
524
523
527
536
534
539
538
535
535
530
520
513
505
496
493
490
487
492
491
487
492
493
490
491
496
488
489
493
493
496
494
495
497
498
495
501
500
497
503
499
494
495
498
495
500
500
504
514
519
508
522
516
504
498
499
491
482
488
489
489
490
497
490
497
503
500
501
505
499
470
477
520
600
787
942
804
586
515
513
513
515
505
503
508
511
512
509
506
506
503
502
508
510
504
510
521
519
524
519
520
529
529
534
538
548
543
548
565
567
561
550
549
542
530
520
512
503
504
501
496
502
506
495
497
501
499
497
493
494
504
501
505
508
502
502
504
505
501
505
501
504
502
491
499
504
492
491
498
493
499
498
497
503
508
512
508
508
510
501
497
490
493
481
476
492
488
486
489
490
487
491
497
491
490
497
482
462
500
562
747
941
866
632
512
505
514
510
497
497
494
487
491
490
488
482
489
489
486
485
485
483
483
491
492
487
493
502
500
501
511
516
517
515
520
526
520
517
510
500
489
481
470
465
460
457
461
460
456
459
463
461
467
469
465
466
473
469
473
478
473
478
485
478
480
482
480
481
484
477
481
485
480
483
484
489
494
503
503
496
505
503
495
482
488
483
478
483
488
483
485
489
488
493
501
496
502
507
495
464
492
536
651
869
921
726
556
518
520
521
516
519
514
509
514
515
510
515
515
514
514
516
514
516
514
515
523
525
527
530
532
539
544
547
554
555
560
563
566
564
559
554
543
535
530
517
515
513
512
513
513
511
515
515
512
517
517
514
521
522
525
524
521
524
525
524
523
526
525
525
524
523
528
540
542
530
539
538
530
528
526
517
509
508
516
514
513
514
516
516
521
520
518
524
522
487
490
542
626
794
948
817
618
557
542
531
533
532
529
524
523
530
524
523
523
522
526
524
522
520
524
519
519
526
522
522
526
529
533
537
535
543
547
542
547
542
533
529
520
508
504
501
496
493
491
491
491
490
491
491
492
494
495
493
494
499
494
492
498
497
498
498
490
494
495
490
490
491
489
491
498
506
509
501
510
504
493
489
487
477
474
478
482
480
484
486
486
489
489
491
497
492
481
458
492
540
669
876
882
673
527
511
506
501
499
501
498
496
496
496
499
498
490
492
496
490
494
496
492
497
499
496
502
504
508
514
512
519
530
528
524
534
536
533
531
516
507
501
495
491
486
481
483
485
483
483
486
484
490
489
490
494
495
492
501
497
496
500
501
495
501
499
498
502
498
502
507
506
514
524
511
512
519
502
495
501
494
481
487
493
493
494
494
494
501
498
504
505
504
506
481
472
519
594
779
952
835
604
522
519
520
519
516
510
512
509
506
508
511
504
508
504
506
511
509
508
510
508
515
516
518
522
527
529
535
542
543
546
551
553
549
548
540
525
522
511
505
498
497
499
493
491
497
497
493
497
499
495
502
503
499
503
509
502
509
505
501
510
508
505
502
500
504
504
503
509
519
524
512
522
515
504
503
501
495
487
487
494
497
490
494
497
495
497
505
499
500
502
467
477
522
611
819
949
787
572
511
513
519
512
505
509
505
504
506
505
504
507
507
504
505
504
509
513
510
513
513
513
517
523
520
527
536
534
537
543
544
548
546
541
535
523
515
506
499
493
495
489
487
496
494
493
495
495
495
500
497
494
499
499
504
507
503
507
508
501
505
511
502
503
507
508
509
520
523
517
524
521
513
507
504
499
491
491
500
502
498
502
506
503
506
506
503
510
508
485
474
516
589
750
930
834
623
536
522
516
517
514
512
508
509
509
506
512
513
512
511
512
512
513
513
512
515
520
518
524
526
528
538
536
541
546
547
550
554
549
545
540
532
520
517
508
499
500
497
493
494
489
492
491
493
491
494
492
494
496
494
499
499
494
498
499
496
496
498
498
497
497
500
516
518
501
514
509
495
496
492
486
481
482
481
489
488
486
491
487
488
495
496
493
495
463
460
513
597
765
914
775
576
518
506
499
502
499
497
498
495
496
494
499
500
496
494
496
497
495
497
498
496
502
506
508
512
511
520
526
527
532
534
533
536
538
531
521
515
506
502
497
493
491
494
490
491
492
495
496
497
501
501
500
499
506
507
504
513
513
507
513
511
508
510
511
508
511
509
510
518
529
522
521
527
515
506
504
505
496
493
499
503
496
499
504
499
502
504
501
506
507
495
469
506
554
689
910
908
689
533
515
521
524
513
516
511
508
512
507
507
509
504
500
506
502
503
507
503
507
510
507
515
519
523
523
530
532
534
538
539
542
545
536
536
527
513
506
504
493
492
491
490
491
489
489
494
493
490
496
497
495
497
494
501
503
501
499
504
504
502
503
499
502
505
497
503
506
508
522
520
511
523
512
498
502
502
491
489
493
495
494
496
498
499
500
501
504
505
502
506
470
485
533
637
852
948
763
558
516
513
514
512
506
504
505
501
501
503
499
501
502
494
500
507
500
501
506
505
511
511
513
520
524
525
532
537
536
539
543
543
543
532
523
515
503
495
494
490
488
489
486
485
487
486
489
490
487
492
496
492
498
497
495
500
499
497
500
501
498
503
501
499
504
502
499
502
508
507
522
517
503
521
514
501
501
496
486
487
490
491
494
493
492
493
492
494
498
496
498
500
468
474
525
611
806
936
775
573
517
511
511
508
507
506
502
501
504
504
502
504
506
504
502
504
506
507
507
507
513
509
513
521
523
523
530
533
537
544
542
544
543
535
532
523
509
506
502
489
494
494
487
490
490
490
492
494
491
496
496
496
499
501
502
506
505
500
505
506
503
508
507
503
510
509
511
527
520
512
521
513
505
502
498
492
491
490
493
499
496
495
495
495
498
502
500
500
502
470
467
518
603
767
927
799
596
531
518
508
511
506
507
501
505
505
501
502
504
503
503
505
503
505
506
507
508
512
513
512
519
520
525
530
531
536
538
537
541
538
530
526
517
508
506
498
491
493
496
490
495
494
491
500
496
494
498
495
496
500
498
501
506
500
504
503
498
503
504
501
502
506
499
499
503
501
505
508
520
516
512
518
510
504
497
499
496
486
490
498
496
494
495
495
500
499
501
504
503
496
466
494
544
665
876
909
712
547
520
517
514
511
512
508
507
509
507
509
508
506
511
512
507
511
511
508
512
514
512
515
519
523
530
534
531
541
546
546
548
546
545
537
524
515
508
499
490
493
489
484
488
487
488
494
483
491
495
492
494
496
492
494
498
499
498
497
499
499
500
496
499
502
498
500
499
496
500
501
499
508
508
516
516
507
516
511
498
493
498
489
483
491
490
491
495
494
494
499
498
500
501
503
502
469
485
528
640
854
938
753
554
515
517
517
511
509
505
507
504
505
508
502
500
505
501
501
507
504
504
509
506
509
512
511
516
523
524
529
536
538
541
543
547
545
541
528
519
511
501
493
491
487
489
487
486
492
490
484
492
495
492
495
498
496
499
502
499
505
503
504
505
504
504
505
504
504
505
504
503
504
503
504
505
505
511
522
526
518
527
522
513
505
507
500
495
496
498
501
500
501
503
505
509
506
505
512
511
492
473
515
578
754
948
864
632
525
520
524
521
514
511
511
511
509
508
510
509
507
509
510
508
509
510
508
514
515
511
517
521
524
530
532
537
544
548
546
551
547
542
536
523
515
511
502
494
493
490
488
490
489
488
492
492
493
495
491
493
500
495
495
503
501
503
503
503
505
504
501
506
504
500
500
506
499
501
506
511
523
510
510
523
512
497
501
498
489
491
492
491
491
493
496
500
497
499
505
500
504
496
460
491
545
655
859
903
694
550
522
505
505
512
504
504
503
502
503
502
495
502
504
498
500
500
500
503
504
507
512
510
511
521
522
524
529
532
532
542
536
538
538
528
521
515
507
496
496
488
485
491
485
486
489
489
490
496
491
493
496
496
499
498
500
502
504
501
500
504
504
505
501
502
501
500
500
507
503
504
522
523
511
523
513
506
503
499
492
496
490
494
500
500
499
505
498
496
506
506
508
504
477
475
519
596
768
928
806
601
528
519
512
513
509
510
508
505
506
501
500
506
504
503
506
502
501
508
503
505
512
510
514
520
521
526
532
529
538
546
543
546
544
536
531
522
510
507
501
492
491
490
485
493
489
489
497
494
494
497
496
498
503
503
504
505
503
506
510
506
506
509
505
508
507
507
509
508
502
504
506
503
502
512
511
518
529
512
520
527
512
502
503
494
490
497
498
498
495
495
499
499
502
504
502
506
508
482
474
519
586
767
949
844
613
523
518
521
520
512
512
515
512
508
512
512
510
510
509
510
513
509
511
511
513
518
515
515
523
528
528
538
542
542
547
549
551
555
549
540
532
519
508
506
499
493
494
491
493
494
490
491
495
492
493
498
493
497
503
498
503
504
502
501
506
505
505
504
501
503
502
500
500
499
502
502
502
505
511
517
525
514
519
520
511
498
501
497
489
492
498
495
498
498
496
501
504
500
506
510
502
483
474
513
588
770
944
843
607
514
517
521
515
510
508
506
507
503
501
504
502
501
506
506
504
506
505
508
510
508
513
519
516
520
531
536
537
540
542
550
552
548
547
540
525
517
511
500
496
495
490
491
490
487
493
491
491
494
492
493
494
495
495
499
496
496
504
503
501
501
503
505
506
501
502
503
500
500
504
504
507
523
514
507
520
506
498
496
493
490
485
489
494
491
488
490
493
495
498
495
493
504
498
462
489
540
646
850
918
718
554
521
514
511
507
507
505
505
509
508
503
507
510
506
508
508
506
510
513
509
512
518
514
519
527
528
533
538
540
543
543
548
549
544
540
530
518
510
508
498
496
498
491
494
497
491
491
499
499
494
496
497
502
502
502
504
509
504
506
505
505
508
508
504
511
509
508
511
512
524
524
511
522
519
506
502
502
491
490
496
494
494
499
495
494
501
499
499
503
501
502
473
477
531
624
799
924
761
572
525
517
505
509
509
505
506
506
504
505
502
500
506
502
500
503
503
501
509
507
506
512
511
510
521
523
526
534
533
540
542
540
541
535
526
518
509
501
502
498
490
491
493
489
493
494
490
493
495
493
496
496
498
501
501
501
502
503
505
508
501
500
505
504
503
504
499
500
501
502
505
512
520
517
513
522
512
504
497
499
494
486
494
496
492
494
495
499
498
498
496
503
506
495
465
496
542
662
881
917
717
540
512
521
517
508
509
509
505
506
505
504
505
503
502
504
503
505
505
504
506
512
510
511
519
519
527
532
534
537
542
543
548
552
546
540
531
520
510
504
499
492
489
489
493
490
488
491
488
488
494
490
493
496
495
497
499
497
503
505
501
500
503
500
500
503
500
504
502
500
502
503
505
519
526
509
517
516
502
497
499
491
485
491
493
493
490
493
497
496
494
498
499
499
506
485
463
507
568
734
944
871
634
519
512
520
522
509
508
510
508
506
505
505
504
507
506
503
503
503
504
505
505
513
511
515
520
520
524
530
535
542
548
546
547
552
545
535
524
514
505
498
490
489
491
484
489
495
491
493
496
495
497
496
492
498
501
497
503
503
501
505
508
505
506
506
505
508
506
501
504
502
503
507
505
508
523
522
510
524
519
507
502
499
495
491
494
499
499
495
500
502
500
503
506
508
511
511
485
478
524
594
774
948
828
608
527
521
523
522
514
520
515
511
518
513
510
515
510
511
516
512
511
515
516
516
519
518
521
527
525
532
539
539
547
551
546
551
549
542
534
528
520
510
501
496
495
491
490
494
492
491
492
496
494
495
496
493
498
500
501
500
498
502
507
504
506
506
505
508
505
502
506
510
510
522
517
511
521
513
498
498
497
484
487
494
493
493
495
493
497
499
497
505
501
501
502
466
493
548
649
839
921
725
559
530
518
513
513
509
512
515
506
503
510
508
509
510
506
508
510
511
511
510
513
513
516
521
524
528
531
537
540
540
544
546
543
539
533
523
520
510
504
501
494
491
494
490
492
497
492
490
496
492
493
498
494
500
502
501
502
506
505
507
508
504
504
501
501
502
500
501
501
499
504
508
509
519
511
513
514
503
494
497
494
483
482
489
489
488
494
493
496
497
492
497
500
498
486
467
506
568
721
920
866
638
526
521
513
509
508
508
504
504
502
501
505
503
501
504
503
503
506
506
506
510
508
511
516
515
519
527
528
534
542
541
544
551
547
544
536
523
514
502
496
491
491
488
488
488
486
492
490
490
494
496
491
495
495
496
500
499
500
503
502
503
504
500
503
506
504
506
504
502
503
504
500
504
509
508
514
527
510
510
520
507
500
501
495
492
493
494
498
499
497
497
502
500
501
503
505
508
502
469
499
548
681
910
919
700
539
515
522
528
514
508
514
511
512
514
507
509
513
509
510
511
508
508
511
510
512
518
515
519
528
532
534
540
547
546
553
551
556
553
543
537
522
509
508
499
492
494
494
491
491
490
491
494
494
490
497
493
498
499
495
500
503
501
502
507
504
506
503
506
505
503
503
505
504
502
505
505
504
510
509
517
530
515
520
524
507
502
508
494
491
496
498
498
502
498
501
504
501
505
509
507
508
494
470
512
569
730
944
884
646
530
523
519
520
514
513
513
510
508
509
504
505
508
504
507
510
508
509
512
512
509
517
518
519
529
530
535
544
541
542
553
555
553
551
539
531
525
512
507
500
496
495
489
489
496
495
493
496
497
497
500
497
497
501
500
500
504
503
502
507
505
503
510
507
507
507
504
503
505
506
510
520
522
514
523
516
507
502
499
497
490
495
500
498
498
503
501
503
505
503
503
511
507
473
475
525
602
772
932
810
603
535
522
517
515
511
512
509
507
511
509
510
510
507
511
509
507
507
510
509
512
513
510
515
516
522
527
529
527
537
537
537
542
538
529
527
517
504
501
492
487
488
484
483
488
487
483
486
493
490
491
492
498
497
494
498
500
498
499
501
500
500
499
498
500
500
500
501
506
514
522
505
514
515
500
494
500
493
484
490
495
486
490
493
492
493
496
494
499
498
498
472
468
521
599
757
921
806
592
517
515
503
504
505
503
500
499
498
502
501
496
501
501
495
499
499
500
504
504
505
509
509
512
521
519
520
530
533
530
539
539
537
533
522
516
511
499
495
492
487
487
484
484
489
491
484
486
492
490
493
493
488
496
494
493
499
500
493
501
500
497
498
495
494
497
496
493
499
502
507
521
508
511
518
505
496
499
490
481
487
489
489
491
490
493
494
492
496
502
500
504
489
460
510
569
712
931
886
649
526
521
515
518
516
510
511
508
509
513
511
508
508
508
506
510
511
508
509
511
509
518
517
519
526
526
538
543
540
546
554
554
554
555
546
535
527
520
509
504
502
498
497
497
497
499
501
502
503
502
506
507
506
511
507
506
509
509
510
512
509
507
508
508
509
508
504
510
519
514
524
534
514
527
523
511
505
505
495
490
496
500
500
495
501
504
505
504
506
506
506
509
480
476
527
609
802
965
836
601
524
523
529
526
515
513
519
512
512
513
510
510
514
509
509
512
506
514
516
509
517
518
518
522
525
530
537
542
540
546
552
549
552
548
535
528
516
507
502
497
491
490
489
487
492
488
492
494
492
494
496
493
496
502
495
500
501
499
502
503
499
501
503
498
501
503
503
504
511
513
524
513
511
518
506
491
499
496
485
487
494
493
497
494
496
500
499
497
499
499
502
485
461
510
572
732
942
873
633
518
514
514
513
511
504
503
500
501
505
501
500
502
500
498
504
501
499
502
502
503
509
511
513
520
526
527
532
536
541
546
542
544
544
532
524
517
507
500
493
489
488
487
487
486
489
490
492
492
492
496
496
496
499
500
496
502
503
498
501
503
502
504
504
505
514
518
524
515
520
520
512
504
501
500
490
488
501
496
493
500
500
500
499
499
504
505
500
478
469
518
606
769
930
810
602
530
518
505
508
511
504
503
503
501
502
504
500
501
506
502
497
505
501
508
507
506
512
515
515
518
521
524
528
533
534
537
539
536
533
523
514
511
507
494
492
490
489
492
487
488
495
495
493
498
496
498
504
499
503
506
503
504
505
505
502
507
508
510
511
509
522
525
507
519
516
502
503
503
491
488
494
492
494
496
493
497
500
498
503
502
501
498
465
491
548
659
852
914
715
554
527
518
508
510
512
510
506
506
505
504
504
504
507
502
502
504
500
503
505
502
508
513
509
515
522
522
528
533
532
536
537
536
535
528
517
510
502
492
494
489
485
488
486
483
485
487
487
491
491
493
495
493
493
499
496
497
504
501
498
503
497
498
503
496
505
511
507
521
514
503
517
504
493
495
490
482
483
491
490
493
492
492
498
497
498
502
499
503
489
462
505
566
721
935
883
646
518
514
513
518
514
508
508
507
503
503
505
504
503
500
498
505
504
501
509
506
507
510
509
514
523
526
527
534
537
537
544
545
544
543
532
522
517
503
495
494
489
488
491
489
490
491
491
494
500
496
498
499
499
502
504
502
507
505
503
506
505
501
506
508
503
511
508
514
530
519
510
520
510
495
503
498
487
492
495
495
497
495
495
502
502
502
503
504
508
498
462
497
551
689
920
931
695
529
515
514
522
514
505
510
509
505
507
506
502
500
503
503
504
505
502
505
508
509
507
509
518
521
522
527
533
538
540
544
547
547
545
533
520
516
504
497
493
488
490
488
484
489
490
487
497
496
490
497
499
497
498
499
499
503
499
503
507
501
503
509
505
500
501
501
509
511
518
518
510
517
514
503
491
493
490
487
490
491
484
489
489
486
493
486
485
491
493
487
462
468
508
604
809
946
796
568
500
505
507
506
500
499
498
499
498
496
500
497
497
502
500
500
503
501
504
505
507
509
515
517
520
525
526
535
542
541
542
546
545
539
529
519
510
506
496
494
493
490
495
495
493
493
493
495
499
494
496
502
497
503
510
502
503
507
507
507
509
508
506
508
508
507
512
520
527
514
518
521
508
499
504
497
492
495
497
492
496
495
491
500
499
497
504
503
503
484
468
512
589
749
929
835
612
529
522
511
509
510
510
504
510
505
504
510
504
505
506
504
501
507
504
509
510
507
511
516
517
522
523
527
536
534
535
543
541
540
533
523
513
509
499
496
494
487
493
497
488
492
494
494
494
495
492
498
499
497
498
503
504
504
506
505
505
506
502
505
506
504
509
514
518
512
512
519
509
497
497
496
485
482
497
496
492
493
492
493
498
498
500
500
500
492
464
498
557
690
895
881
664
528
516
509
505
508
507
501
504
502
501
503
498
501
510
504
501
504
504
502
505
507
511
519
515
518
527
529
532
537
539
546
548
539
536
532
519
513
508
497
499
495
490
493
493
492
494
494
493
499
499
493
499
499
497
500
501
501
508
511
504
507
506
507
509
506
503
505
505
511
519
525
515
514
521
510
501
497
497
493
491
496
498
491
500
499
494
500
502
497
508
509
495
467
496
539
667
894
924
716
539
509
521
522
508
508
508
508
506
504
506
507
507
508
505
504
506
508
505
509
511
508
514
519
519
525
530
534
544
548
544
553
552
543
538
527
516
511
505
495
492
489
486
492
492
492
490
493
492
494
491
493
498
491
494
500
496
497
502
501
501
507
504
507
506
498
501
507
505
506
510
517
509
515
514
505
498
494
494
489
483
491
492
489
495
496
494
500
499
500
502
500
499
467
490
535
651
875
933
733
543
512
515
517
511
508
505
508
504
499
501
506
505
504
506
500
504
505
498
504
508
508
513
518
515
524
528
532
537
537
542
544
544
539
534
522
512
505
493
490
489
484
485
484
481
484
485
482
488
489
484
485
488
491
490
492
497
500
496
499
505
504
500
500
504
501
500
503
498
503
506
505
509
519
514
513
523
513
504
499
498
494
489
494
498
497
501
501
502
507
509
510
514
515
509
490
480
522
597
768
938
828
606
527
528
519
520
519
516
508
512
509
507
512
508
503
505
504
504
509
506
507
510
510
513
519
520
524
532
530
536
541
539
545
544
541
534
529
518
510
503
490
492
489
482
482
484
482
489
484
483
488
489
486
491
491
490
497
494
491
497
498
497
498
497
499
501
496
498
502
504
505
514
514
503
516
507
496
498
495
489
484
483
488
492
489
493
496
494
493
494
495
501
502
480
465
510
574
719
907
846
628
527
516
509
510
509
507
502
503
503
501
502
503
501
504
506
500
502
504
502
506
507
508
512
513
520
525
526
528
534
536
534
543
540
533
527
515
505
502
495
488
490
485
485
487
487
485
489
487
487
492
493
493
496
495
498
502
496
496
499
499
500
500
499
501
504
502
502
504
503
508
519
523
513
517
516
507
497
498
497
489
489
499
498
497
500
501
501
503
503
503
508
506
495
470
510
561
702
918
890
673
535
519
519
519
516
514
508
513
515
506
510
509
507
511
510
507
511
509
510
514
515
513
519
521
525
529
532
536
545
545
550
553
551
547
542
528
519
513
503
496
496
493
492
496
491
494
496
495
497
500
498
499
499
500
505
506
503
505
507
503
505
504
503
509
506
501
508
504
502
508
511
511
525
513
511
524
507
498
504
496
492
491
492
498
497
495
497
498
494
499
503
497
505
499
461
491
535
641
865
939
745
549
510
514
520
512
507
510
508
506
507
506
503
509
505
503
505
503
504
509
508
506
513
511
516
523
521
530
540
540
547
553
551
555
557
544
533
525
513
507
503
493
494
494
493
495
493
494
499
496
497
501
498
496
502
502
502
501
502
505
509
506
504
506
503
504
509
504
504
507
502
508
509
508
523
516
508
521
512
499
498
496
486
488
492
490
490
493
493
496
497
496
502
504
500
500
463
482
536
638
848
936
748
554
512
512
513
506
507
504
506
504
500
502
501
501
499
499
501
500
497
505
503
505
510
513
512
514
523
523
530
535
538
544
543
542
545
539
526
520
507
498
494
487
488
491
484
486
487
486
485
488
489
491
496
491
494
498
497
496
499
496
499
501
497
501
500
499
501
501
501
507
509
520
514
506
518
509
500
494
498
486
479
491
490
487
490
492
496
497
492
497
502
504
497
469
477
529
624
799
926
765
569
525
518
504
512
514
504
506
509
508
507
505
507
510
507
506
510
508
511
514
512
514
521
519
524
529
530
536
542
541
543
550
547
546
544
528
519
514
503
499
495
486
489
492
485
489
495
489
491
495
490
494
497
492
498
495
497
501
497
499
499
499
498
497
497
497
500
493
495
506
502
514
517
503
513
507
496
493
497
482
481
490
486
488
491
487
491
495
494
496
496
494
498
473
459
511
580
741
927
836
611
520
513
505
510
504
505
508
504
502
504
503
505
509
503
503
505
502
507
508
506
512
515
516
523
528
528
539
543
546
549
553
556
555
552
543
534
526
511
511
504
500
498
499
498
502
501
502
507
504
507
511
508
508
510
512
509
509
510
515
515
511
514
517
512
513
512
505
510
513
507
511
513
511
529
524
517
530
519
507
507
507
499
496
499
502
504
498
502
507
504
503
506
510
509
508
484
484
527
605
807
961
823
595
521
521
525
521
515
515
512
512
512
513
509
510
510
506
510
510
506
513
513
511
516
517
518
524
530
536
537
541
545
552
552
551
555
548
538
532
519
511
509
498
496
499
495
493
499
497
495
499
501
503
499
499
504
506
501
504
509
504
505
507
504
506
505
504
506
505
500
501
502
503
510
510
520
529
511
522
523
506
501
504
493
490
498
500
499
500
498
500
504
507
507
507
506
508
496
467
510
568
723
937
891
657
525
513
517
521
509
507
510
508
501
506
500
502
502
499
498
503
499
501
506
502
506
513
510
513
516
516
524
530
530
534
541
539
545
543
530
523
515
505
498
492
486
485
485
483
484
484
483
489
486
485
491
493
489
492
497
492
497
496
497
498
495
495
502
496
497
500
495
500
501
501
515
512
509
519
505
493
496
492
481
482
485
489
494
491
491
494
495
495
497
497
498
498
462
488
543
646
845
922
717
549
522
507
506
509
502
502
503
500
500
499
499
504
506
497
502
507
503
505
505
500
509
512
511
516
520
521
527
533
531
536
538
540
541
534
522
517
507
499
498
488
488
492
488
484
484
490
493
495
493
492
498
496
500
499
497
502
502
502
502
502
499
503
503
501
503
505
504
508
522
516
511
520
512
504
497
500
497
486
495
495
489
496
494
494
499
496
497
503
503
498
466
477
528
611
797
929
778
581
519
517
510
507
508
507
503
506
504
506
506
501
506
509
505
504
504
503
503
507
508
509
517
516
516
521
525
529
533
535
538
543
539
533
529
523
514
506
499
497
495
492
490
495
496
497
497
498
499
496
499
505
503
504
508
508
504
512
507
504
512
509
506
506
505
506
507
504
506
510
514
524
532
516
526
527
514
509
511
500
498
501
501
502
506
504
509
507
508
515
516
515
516
492
478
528
602
779
963
860
627
533
529
529
532
522
520
524
520
520
524
519
516
519
517
515
514
512
514
518
514
520
522
521
525
529
529
539
541
546
548
551
553
558
554
542
539
528
519
513
508
503
505
497
499
502
500
498
501
500
500
504
505
504
508
507
506
510
510
509
509
505
507
508
505
507
507
502
504
505
504
510
515
524
522
513
524
518
508
499
498
491
488
495
496
493
495
496
497
499
499
501
504
500
496
465
480
528
639
849
942
760
548
508
511
516
511
505
504
504
502
500
500
500
498
502
501
496
500
499
497
505
507
503
507
510
512
521
522
525
535
534
537
540
545
544
539
532
523
511
503
501
496
487
489
487
486
485
489
487
491
490
489
494
495
491
497
497
493
494
496
492
492
494
492
496
493
492
494
493
495
498
497
503
516
504
507
515
500
489
492
485
478
481
482
479
488
486
484
487
484
487
488
488
492
480
451
492
553
695
907
867
638
517
502
499
505
500
494
500
497
494
498
494
494
501
496
498
505
504
498
502
503
507
510
504
510
518
517
520
527
529
530
535
538
537
534
531
521
512
504
499
493
487
487
484
480
485
484
484
491
488
486
493
493
491
494
495
499
498
497
502
505
500
503
509
503
504
509
515
524
510
510
519
510
495
495
496
486
485
492
489
495
493
492
496
495
499
501
501
501
486
457
507
579
708
898
872
646
533
522
510
507
508
502
509
510
502
505
507
502
504
506
504
505
510
504
506
510
507
512
515
516
519
521
527
532
531
534
538
536
536
541
533
524
515
506
505
498
493
494
494
491
489
495
496
496
498
499
496
500
502
500
503
502
503
508
500
503
506
502
504
507
504
507
510
510
524
518
515
523
511
494
497
494
486
487
491
496
495
495
497
500
499
497
501
502
500
486
468
514
584
733
928
859
625
527
521
513
516
513
507
506
511
501
508
509
505
509
511
508
507
509
509
510
509
513
515
521
518
525
528
530
535
537
540
544
543
548
549
536
526
523
512
505
500
494
495
492
489
493
493
490
497
499
495
496
497
498
501
502
500
499
505
500
501
504
498
498
504
506
519
521
507
520
515
499
495
493
487
485
484
486
487
485
490
491
490
496
499
495
498
498
458
478
538
638
838
936
747
554
513
507
512
512
502
503
506
503
504
504
503
503
503
503
500
503
504
506
502
505
508
507
514
518
517
522
531
532
533
538
537
541
545
537
528
521
506
504
504
495
490
489
484
495
494
486
493
497
493
494
497
493
497
499
498
503
499
499
504
500
505
512
521
522
514
517
515
506
493
498
496
487
484
493
493
493
497
494
497
499
500
501
505
501
466
485
539
648
864
961
768
559
518
520
525
517
515
512
509
513
511
509
513
512
510
515
509
507
516
515
512
517
519
518
524
524
531
535
534
538
542
550
552
550
542
538
535
521
520
512
503
505
499
498
499
497
497
501
502
500
501
505
507
506
506
507
509
509
511
512
513
520
522
531
530
518
528
523
513
501
507
502
490
497
502
496
499
499
494
500
503
497
501
505
493
464
498
550
697
930
940
702
536
514
521
518
508
513
513
508
508
509
507
509
504
504
506
503
504
510
505
507
511
510
515
517
520
525
531
531
537
542
541
542
542
535
529
522
507
505
497
492
494
490
488
491
487
489
492
491
491
495
494
496
498
496
498
502
500
504
506
506
504
511
519
513
509
514
505
495
487
489
485
475
481
486
481
485
487
485
490
490
488
494
493
472
446
492
553
712
935
889
649
517
504
501
501
497
501
496
491
499
496
496
499
496
497
501
501
502
501
501
503
503
503
511
514
514
519
527
525
526
532
533
535
534
530
525
515
506
505
495
488
492
490
483
489
490
492
491
490
489
492
494
494
498
496
499
503
500
501
509
506
509
525
526
510
517
519
507
498
499
497
489
485
498
494
490
494
495
497
498
498
497
503
503
473
461
515
603
769
942
829
608
530
517
507
507
506
509
504
502
508
504
507
510
500
505
507
502
505
505
502
508
512
510
516
517
516
522
524
525
528
529
531
529
525
525
523
509
505
504
497
497
497
490
489
494
494
491
493
493
493
495
497
499
501
497
499
500
496
502
501
501
508
506
507
519
518
508
519
512
499
495
492
491
486
486
484
491
492
492
497
495
496
501
497
504
501
468
479
530
620
815
937
766
566
514
508
506
509
502
502
504
501
503
500
498
501
500
502
501
499
497
501
502
501
507
509
510
513
519
525
530
532
534
536
535
540
543
532
526
519
508
505
506
501
500
500
497
499
500
498
500
502
502
508
509
502
511
514
511
511
511
511
511
510
508
513
513
515
528
530
516
527
523
512
503
503
499
493
493
497
496
495
499
501
497
504
507
504
506
508
492
466
514
566
721
947
902
660
530
519
520
523
512
511
513
508
508
513
509
511
509
507
508
510
509
509
508
508
514
513
516
519
524
527
534
534
538
545
540
543
545
538
532
526
511
502
500
495
490
489
488
488
487
485
487
488
487
492
490
490
493
492
496
498
497
497
501
500
500
500
500
496
496
495
498
505
513
517
507
513
510
498
489
496
491
480
484
490
485
489
491
488
490
495
493
497
500
499
483
464
506
573
741
947
880
632
516
515
520
517
512
508
504
507
507
506
507
501
505
505
500
506
506
504
508
509
505
511
516
516
522
528
531
534
541
539
544
543
538
539
530
517
513
505
493
494
492
483
490
487
483
489
490
492
492
490
494
496
497
498
498
497
499
501
501
503
506
499
496
500
498
498
503
504
508
521
505
509
517
501
496
493
489
485
482
484
489
488
488
486
488
490
492
494
498
502
485
455
500
550
675
884
892
668
534
515
506
507
503
503
506
500
500
503
502
501
502
498
503
503
498
503
506
506
508
512
512
514
518
520
527
530
529
532
535
537
538
532
528
524
515
506
501
495
492
492
487
489
492
492
491
492
492
499
495
493
497
499
498
502
502
499
503
501
500
501
502
501
500
496
496
500
499
505
520
514
505
519
508
502
500
494
485
488
492
493
495
490
491
496
493
499
504
498
498
501
462
483
537
636
834
927
731
560
524
515
510
509
504
508
506
503
505
504
501
506
503
501
509
505
501
509
506
504
512
510
513
522
522
524
530
529
532
536
537
540
537
529
526
520
505
505
500
495
493
489
489
494
492
491
495
495
494
495
499
503
503
498
503
506
502
506
507
505
502
506
503
500
502
498
499
503
498
498
502
502
507
509
519
514
513
523
511
506
502
499
491
489
496
496
497
500
500
500
503
503
500
505
508
498
464
494
536
657
880
933
736
549
515
520
520
513
511
511
511
511
508
